Data from test_V78500241_990.txt Node
Date: Fri Mar 25 16:55:53 CST 2022
User: usil
Spectrometer: V785-0024
Trigger mode: 0
Integration Time (sec): 4.000000E-1
Scans to average: 1
Nonlinearity correction enabled: false
Boxcar width: 0
Storing dark spectrum: false
XAxis mode: Wavelengths
Number of Pixels in Spectrum: 1024
>>>>>Begin Spectral Data<<<<<
801.071	8027
801.214	8016
801.356	7856
801.499	7814
801.641	7830
801.783	7803
801.926	7898
802.068	7818
802.211	7993
802.353	7845
802.496	7875
802.638	7822
802.78	7868
802.923	7875
803.065	7837
803.208	7898
803.35	7947
803.492	8111
803.635	8199
803.777	7955
803.919	8084
804.061	8484
804.204	8100
804.346	8050
804.488	8005
804.63	8130
804.773	7921
804.915	8043
805.057	8298
805.199	8164
805.341	8237
805.483	8214
805.626	8225
805.768	8058
805.91	8153
806.052	8130
806.194	8058
806.336	8290
806.478	8084
806.62	8077
806.762	8073
806.904	8229
807.046	8526
807.188	8279
807.33	8305
807.472	8343
807.614	8183
807.756	8115
807.898	7997
808.04	7860
808.182	7856
808.324	7879
808.465	7868
808.607	8130
808.749	8031
808.891	8134
809.033	8282
809.174	8157
809.316	8035
809.458	8035
809.6	8020
809.741	8043
809.883	8001
810.025	8065
810.166	7970
810.308	8001
810.45	7959
810.591	7871
810.733	7674
810.875	7616
811.016	7537
811.158	7403
811.299	7597
811.441	7628
811.582	7704
811.724	7632
811.865	7548
812.007	7670
812.148	7643
812.29	7632
812.431	7670
812.573	7860
812.714	7925
812.855	8123
812.997	8164
813.138	8275
813.279	8191
813.421	8115
813.562	8062
813.703	7875
813.845	7795
813.986	7468
814.127	7228
814.268	7228
814.41	7209
814.551	7129
814.692	7080
814.833	7099
814.974	7069
815.115	7110
815.256	6928
815.397	6943
815.539	6954
815.68	6776
815.821	6779
815.962	6856
816.103	6802
816.244	6738
816.385	6604
816.526	6616
816.666	6467
816.807	6304
816.948	6513
817.089	6498
817.23	6414
817.371	6369
817.512	6426
817.653	6342
817.793	6353
817.934	6467
818.075	6414
818.216	6441
818.356	6410
818.497	6243
818.638	6140
818.778	6152
818.919	6102
819.06	6152
819.2	6247
819.341	6304
819.481	6353
819.622	6475
819.762	6662
819.903	6688
820.043	6597
820.184	6563
820.324	6574
820.465	6692
820.605	6642
820.746	6642
820.886	6464
821.026	6627
821.167	6700
821.307	6779
821.447	6798
821.588	6612
821.728	6593
821.868	6452
822.008	6338
822.149	6342
822.289	6285
822.429	6129
822.569	6125
822.709	6095
822.849	5855
822.99	5859
823.13	5901
823.27	5889
823.41	5824
823.55	5790
823.69	5748
823.83	5821
823.97	5695
824.11	5501
824.25	5547
824.389	5516
824.529	5596
824.669	5520
824.809	5630
824.949	5642
825.089	5630
825.228	5566
825.368	5395
825.508	5334
825.648	5376
825.787	5357
825.927	5372
826.067	5318
826.206	5265
826.346	5360
826.485	5296
826.625	5410
826.765	5535
826.904	5421
827.044	5258
827.183	5185
827.323	5117
827.462	5265
827.601	5181
827.741	5181
827.88	5178
828.02	5155
828.159	5216
828.298	5307
828.437	5318
828.577	5239
828.716	5459
828.855	5315
828.994	5162
829.134	5147
829.273	5212
829.412	5117
829.551	5132
829.69	5170
829.829	5273
829.968	5334
830.107	5242
830.246	5265
830.385	5193
830.524	5098
830.663	5098
830.802	4968
830.941	4881
831.08	4889
831.219	4934
831.357	4972
831.496	5121
831.635	4892
831.774	4828
831.913	4824
832.051	4725
832.19	4740
832.329	4839
832.467	4706
832.606	4656
832.744	4736
832.883	4706
833.022	4672
833.16	4801
833.299	4843
833.437	4835
833.576	4862
833.714	4797
833.852	4828
833.991	4866
834.129	4965
834.267	4915
834.406	4881
834.544	4984
834.682	4972
834.821	4946
834.959	5124
835.097	4995
835.235	5151
835.373	5041
835.511	5090
835.65	5064
835.788	4987
835.926	4866
836.064	4854
836.202	4938
836.34	5105
836.478	5235
836.615	5132
836.753	5193
836.891	5227
837.029	5246
837.167	5143
837.305	5151
837.443	5136
837.58	5060
837.718	5235
837.856	5162
837.993	5117
838.131	5220
838.269	5147
838.406	5143
838.544	5178
838.681	5033
838.819	5029
838.956	4877
839.094	4866
839.231	4980
839.369	5060
839.506	5395
839.643	5288
839.781	5018
839.918	4965
840.055	5121
840.193	5064
840.33	5102
840.467	5159
840.604	5181
840.742	5463
840.879	5090
841.016	5124
841.153	5102
841.29	5353
841.427	5326
841.564	5307
841.701	5372
841.838	5220
841.975	5208
842.112	5254
842.249	5128
842.385	5109
842.522	5284
842.659	5155
842.796	5147
842.933	5155
843.069	5143
843.206	5181
843.343	5299
843.479	5189
843.616	5235
843.752	5022
843.889	4961
844.025	5223
844.162	5006
844.298	5212
844.435	5094
844.571	5048
844.708	5147
844.844	5277
844.98	5353
845.117	5246
845.253	5124
845.389	5045
845.525	5124
845.661	5140
845.798	5048
845.934	5098
846.07	5045
846.206	5193
846.342	5239
846.478	5136
846.614	5010
846.75	4896
846.886	4984
847.022	5147
847.158	4968
847.294	5060
847.429	5109
847.565	5006
847.701	5349
847.837	4881
847.972	4797
848.108	4965
848.244	4896
848.379	4778
848.515	4649
848.65	4733
848.786	4706
848.921	4710
849.057	4767
849.192	4866
849.328	4816
849.463	4847
849.598	4793
849.734	4755
849.869	4679
850.004	4618
850.14	4679
850.275	4611
850.41	4512
850.545	4546
850.68	4558
850.815	4592
850.95	4611
851.085	4835
851.22	4721
851.355	4656
851.49	4535
851.625	4618
851.76	4584
851.895	4603
852.03	4512
852.165	4618
852.299	4672
852.434	4793
852.569	4691
852.703	4782
852.838	4850
852.973	4904
853.107	4946
853.242	4721
853.376	4653
853.511	4550
853.645	4603
853.78	4778
853.914	4725
854.048	4672
854.183	4607
854.317	4698
854.451	4847
854.585	4660
854.72	4588
854.854	4714
854.988	4584
855.122	4634
855.256	4527
855.39	4656
855.524	4793
855.658	4790
855.792	4653
855.926	4736
856.06	4767
856.194	4763
856.327	4660
856.461	4611
856.595	4607
856.729	4630
856.862	4694
856.996	4634
857.13	4706
857.263	4717
857.397	4801
857.53	4611
857.664	4649
857.797	4752
857.931	4778
858.064	4645
858.197	4729
858.331	4630
858.464	4577
858.597	4538
858.731	4645
858.864	4634
858.997	4584
859.13	4641
859.263	4615
859.396	4706
859.529	4558
859.662	4519
859.795	4512
859.928	4561
860.061	4774
860.194	4752
860.327	4622
860.46	4542
860.592	4691
860.725	4664
860.858	4702
860.99	4558
861.123	4535
861.256	4485
861.388	4546
861.521	5239
861.653	4443
861.786	4424
861.918	4462
862.05	4523
862.183	4508
862.315	4546
862.447	4679
862.58	4527
862.712	4405
862.844	4280
862.976	4470
863.108	4424
863.24	4854
863.372	4344
863.504	4447
863.636	4409
863.768	4497
863.9	4455
864.032	4352
864.164	4417
864.296	4443
864.428	4550
864.559	4554
864.691	4523
864.823	4538
864.954	4470
865.086	4478
865.217	4390
865.349	4371
865.48	4474
865.612	4497
865.743	4615
865.875	4474
866.006	4394
866.137	4447
866.269	4402
866.4	4405
866.531	4451
866.662	4390
866.793	4383
866.924	4405
867.055	4489
867.186	4402
867.317	4398
867.448	4352
867.579	4386
867.71	4398
867.841	4337
867.972	4516
868.103	4500
868.233	4375
868.364	4443
868.495	4462
868.625	4626
868.756	4721
868.886	4596
869.017	4630
869.147	4790
869.278	4729
869.408	4630
869.539	4596
869.669	4694
869.799	4622
869.929	4710
870.06	4748
870.19	4946
870.32	4870
870.45	4965
870.58	4987
870.71	5060
870.84	5140
870.97	4949
871.1	4892
871.23	5105
871.36	5128
871.489	4980
871.619	5094
871.749	5041
871.879	5075
872.008	5140
872.138	5056
872.267	4953
872.397	4835
872.526	4752
872.656	4687
872.785	4786
872.915	4923
873.044	4995
873.173	4934
873.303	4972
873.432	4923
873.561	4930
873.69	4820
873.819	4839
873.948	4881
874.077	4866
874.206	4729
874.335	4740
874.464	4927
874.593	5056
874.722	4987
874.851	5075
874.979	5006
875.108	5075
875.237	4927
875.365	4866
875.494	4904
875.623	4965
875.751	4790
875.88	4877
876.008	4934
876.136	4984
876.265	5136
876.393	5341
876.521	5212
876.65	5246
876.778	5208
876.906	5109
877.034	5064
877.162	5018
877.29	4961
877.418	5025
877.546	4976
877.674	5025
877.802	5025
877.93	4991
878.058	4930
878.185	4824
878.313	4976
878.441	4919
878.568	4763
878.696	4847
878.824	4915
878.951	4995
879.079	5079
879.206	5239
879.333	5098
879.461	4987
879.588	4991
879.715	5105
879.842	5170
879.97	4968
880.097	4729
880.224	4759
880.351	4786
880.478	4759
880.605	4763
880.732	4847
880.859	5056
880.986	4866
881.112	4923
881.239	4786
881.366	4675
881.493	4637
881.619	4558
881.746	4634
881.872	4649
881.999	4592
882.125	4706
882.252	4771
882.378	4828
882.505	4991
882.631	4801
882.757	4622
882.883	4702
883.01	4725
883.136	4687
883.262	4660
883.388	4626
883.514	4797
883.64	4866
883.766	4740
883.892	4687
884.018	4675
884.143	4908
884.269	4965
884.395	4672
884.52	4592
884.646	4683
884.772	4519
884.897	4538
885.023	4637
885.148	4759
885.274	4858
885.399	4805
885.524	4706
885.65	4668
885.775	4725
885.9	4717
886.025	4877
886.15	4778
886.275	4740
886.4	4634
886.525	4740
886.65	4679
886.775	4660
886.9	4870
887.025	5003
887.149	4797
887.274	4637
887.399	4546
887.523	4599
887.648	4596
887.773	4592
887.897	4790
888.021	4774
888.146	4660
888.27	4824
888.395	4904
888.519	4729
888.643	4801
888.767	4797
888.891	4656
889.015	4580
889.139	4637
889.263	4573
889.387	4721
889.511	4820
889.635	4820
889.759	4649
889.883	4630
890.006	4691
890.13	4816
890.254	4622
890.377	4641
890.501	4504
890.624	4500
890.748	4626
890.871	4500
890.995	4451
891.118	4371
891.241	4527
891.364	4527
891.488	4622
891.611	4512
891.734	4519
891.857	4599
891.98	4558
892.103	4588
892.226	4573
892.349	4531
892.471	4390
892.594	4546
892.717	4561
892.839	4538
892.962	4630
893.085	4660
893.207	4542
893.33	4500
893.452	4538
893.575	4691
893.697	4538
893.819	4782
893.941	4828
894.064	4736
894.186	4508
894.308	4531
894.43	4706
894.552	4809
894.674	4736
894.796	4516
894.918	4561
895.04	4535
895.161	4725
895.283	4675
895.405	4569
895.526	4584
895.648	4645
895.769	4687
895.891	4714
896.012	4736
896.134	4714
896.255	4634
896.376	4580
896.498	4588
896.619	4691
896.74	4634
896.861	4660
896.982	4896
897.103	5067
897.224	4885
897.345	4733
897.466	4637
897.587	4717
897.708	4858
897.828	4793
897.949	4645
898.07	4554
898.19	4607
898.311	4835
898.431	4668
898.552	4733
898.672	4812
898.792	4778
898.913	4664
899.033	4668
899.153	4493
899.273	4436
899.393	4493
899.513	4489
899.633	4531
899.753	4538
899.873	4489
899.993	4573
900.113	4546
900.232	4603
900.352	4527
900.472	4455
900.591	4356
900.711	4523
900.83	4436
900.95	4599
901.069	4649
901.189	4531
901.308	4379
901.427	4261
901.546	4363
901.665	4481
901.784	4459
901.904	4337
902.023	4310
902.141	4188
902.26	4143
902.379	4276
902.498	4238
902.617	4265
902.735	4360
902.854	4375
902.973	4303
903.091	4196
903.21	4196
903.328	4280
903.446	4299
903.565	4223
903.683	4383
903.801	4299
903.919	4394
904.038	4436
904.156	4325
904.274	4436
904.392	4428
904.51	4421
904.627	4451
904.745	4561
904.863	4596
904.981	4344
905.098	4299
905.216	4367
905.334	4421
905.451	4447
905.569	4451
905.686	4500
905.803	4504
905.921	4390
906.038	4550
906.155	4443
906.272	4371
906.389	4489
906.506	4348
906.623	4386
906.74	4348
906.857	4287
906.974	4394
907.091	4523
907.208	4611
907.324	4592
907.441	4504
907.557	4360
907.674	4341
907.79	4314
907.907	4371
908.023	4424
908.139	4440
908.256	4409
908.372	4443
908.488	4432
908.604	4348
908.72	4306
908.836	4348
908.952	4394
909.068	4436
909.184	4554
909.3	4459
909.415	4561
909.531	4550
909.647	4386
909.762	4325
909.878	4383
909.993	4436
910.108	4398
910.224	4390
910.339	4478
910.454	4363
910.57	4348
910.685	4295
910.8	4653
910.915	4618
911.03	4455
911.145	4344
911.259	4333
911.374	4398
911.489	4318
911.604	4333
911.718	4166
911.833	4185
911.947	4101
912.062	3987
912.176	4238
912.291	4246
912.405	4265
912.519	4478
912.633	4508
912.748	4329
912.862	4303
912.976	4169
913.09	4055
913.204	4200
913.318	4268
913.431	4348
913.545	4306
913.659	4440
913.772	4360
913.886	4219
914	4257
914.113	4352
914.226	4440
914.34	4348
914.453	4246
914.566	4428
914.68	4318
914.793	4367
914.906	4166
915.019	4109
915.132	4086
915.245	4150
915.358	4223
915.47	4230
915.583	4287
915.696	4322
915.809	4390
915.921	4428
916.034	4272
916.146	4230
916.259	4219
916.371	4386
916.483	4337
916.595	4246
916.708	4299
916.82	4295
916.932	4314
917.044	4322
917.156	4337
917.268	4200
917.38	4322
917.491	4280
917.603	4337
917.715	4386
917.826	4424
917.938	4318
918.049	4219
918.161	4352
918.272	4531
918.384	4577
918.495	4481
918.606	4261
918.717	4272
918.828	4310
918.939	4398
919.05	4287
919.161	4295
919.272	4124
919.383	4215
919.494	4455
919.604	4656
919.715	4451
919.826	4348
919.936	4398
920.047	4565
920.157	4504
920.267	4755
920.378	4542
920.488	4489
920.598	4740
920.708	4866
920.818	4763
920.928	4744
921.038	4881
921.148	4930
921.258	4588
921.368	4558
921.477	4443
921.587	4447
921.697	4375
921.806	4538
921.916	4424
922.025	4253
922.134	4249
922.244	4234
922.353	4325
922.462	4185
922.571	4112
922.68	4002
922.789	3975
922.898	4021
923.007	3991
923.116	4090
923.224	4055
923.333	4082
923.442	3983
923.55	4010
923.659	3987
923.767	4112
923.876	3975
923.984	4105
924.092	3972
924.201	4029
924.309	4082
924.417	4116
924.525	4051
924.633	4112
924.741	5045
924.849	3922
924.956	4139
925.064	3953
925.172	3861
925.279	3964
925.387	4063
925.494	4029
925.602	4223
925.709	4154
925.816	4040
925.924	4143
926.031	4204
926.138	4200
926.245	4185
926.352	4131
926.459	4234
926.566	4284
926.673	4185
926.779	4063
926.886	4071
926.993	3979
927.099	3956
927.206	3922
927.312	3930
927.419	4036
927.525	4032
927.631	4105
927.737	3945
927.843	3926
927.95	3850
928.056	3964
928.162	3953
928.267	4067
928.373	4641
928.479	4097
928.585	3865
928.69	4025
928.796	4074
928.901	3945
929.007	3846
929.112	4032
929.218	3972
929.323	3922
929.428	3930
929.533	4067
929.638	3873
929.743	3945
929.848	4048
929.953	3972
930.058	3903
930.163	3762
930.267	3808
930.372	4006
930.477	3812
930.581	4048
930.685	3953
930.79	3812
930.894	3869
930.998	3850
931.103	3998
931.207	3720
931.311	3701
931.415	3701
931.519	3542
931.623	3542
