Data from test_V78500241_458.txt Node
Date: Fri Mar 25 16:52:11 CST 2022
User: usil
Spectrometer: V785-0024
Trigger mode: 0
Integration Time (sec): 4.000000E-1
Scans to average: 1
Nonlinearity correction enabled: false
Boxcar width: 0
Storing dark spectrum: false
XAxis mode: Wavelengths
Number of Pixels in Spectrum: 1024
>>>>>Begin Spectral Data<<<<<
801.071	8027
801.214	8062
801.356	7902
801.499	7822
801.641	7795
801.783	7871
801.926	8054
802.068	7898
802.211	7982
802.353	8027
802.496	7883
802.638	7967
802.78	7909
802.923	7871
803.065	7864
803.208	7837
803.35	7936
803.492	8031
803.635	8088
803.777	7993
803.919	8081
804.061	8393
804.204	8084
804.346	8012
804.488	7928
804.63	8058
804.773	7978
804.915	8111
805.057	8259
805.199	8195
805.341	8252
805.483	8237
805.626	8206
805.768	8069
805.91	8187
806.052	8168
806.194	8119
806.336	8309
806.478	8214
806.62	8039
806.762	8103
806.904	8237
807.046	8454
807.188	8324
807.33	8206
807.472	8294
807.614	8138
807.756	8161
807.898	7993
808.04	7868
808.182	7928
808.324	7890
808.465	7818
808.607	8039
808.749	8096
808.891	8252
809.033	8244
809.174	8176
809.316	8081
809.458	8069
809.6	8008
809.741	8008
809.883	8062
810.025	8077
810.166	8096
810.308	8035
810.45	7993
810.591	7856
810.733	7727
810.875	7681
811.016	7499
811.158	7495
811.299	7643
811.441	7719
811.582	7674
811.724	7636
811.865	7590
812.007	7613
812.148	7590
812.29	7624
812.431	7792
812.573	7982
812.714	8058
812.855	8130
812.997	8233
813.138	8343
813.279	8202
813.421	8180
813.562	8096
813.703	7963
813.845	7833
813.986	7460
814.127	7369
814.268	7350
814.41	7225
814.551	7255
814.692	7225
814.833	7004
814.974	7129
815.115	7118
815.256	6951
815.397	6939
815.539	6954
815.68	6837
815.821	6814
815.962	6909
816.103	6798
816.244	6818
816.385	6642
816.526	6620
816.666	6479
816.807	6296
816.948	6399
817.089	6441
817.23	6395
817.371	6403
817.512	6494
817.653	6410
817.793	6304
817.934	6376
818.075	6445
818.216	6467
818.356	6399
818.497	6235
818.638	6159
818.778	6129
818.919	6098
819.06	6121
819.2	6300
819.341	6311
819.481	6350
819.622	6502
819.762	6760
819.903	6730
820.043	6589
820.184	6566
820.324	6623
820.465	6681
820.605	6703
820.746	6597
820.886	6532
821.026	6768
821.167	6681
821.307	6757
821.447	6802
821.588	6639
821.728	6540
821.868	6467
822.008	6296
822.149	6380
822.289	6369
822.429	6243
822.569	6057
822.709	6163
822.849	5942
822.99	5923
823.13	5931
823.27	5912
823.41	5821
823.55	5760
823.69	5718
823.83	5790
823.97	5684
824.11	5585
824.25	5516
824.389	5516
824.529	5592
824.669	5535
824.809	5608
824.949	5653
825.089	5630
825.228	5516
825.368	5387
825.508	5337
825.648	5303
825.787	5421
825.927	5360
826.067	5318
826.206	5368
826.346	5387
826.485	5421
826.625	5429
826.765	5566
826.904	5406
827.044	5265
827.183	5220
827.323	5121
827.462	5223
827.601	5197
827.741	5185
827.88	5189
828.02	5071
828.159	5220
828.298	5303
828.437	5368
828.577	5242
828.716	5486
828.855	5284
828.994	5178
829.134	5155
829.273	5170
829.412	5174
829.551	5105
829.69	5170
829.829	5315
829.968	5387
830.107	5318
830.246	5292
830.385	5162
830.524	5166
830.663	5090
830.802	4976
830.941	4957
831.08	4889
831.219	4972
831.357	4946
831.496	5098
831.635	4938
831.774	4843
831.913	4839
832.051	4755
832.19	4733
832.329	4847
832.467	4721
832.606	4607
832.744	4706
832.883	4687
833.022	4691
833.16	4778
833.299	4786
833.437	4816
833.576	4809
833.714	4843
833.852	4839
833.991	4934
834.129	4961
834.267	4911
834.406	4911
834.544	5006
834.682	4980
834.821	4987
834.959	5132
835.097	4984
835.235	5094
835.373	5086
835.511	5128
835.65	5018
835.788	4976
835.926	4923
836.064	4911
836.202	4923
836.34	5212
836.478	5227
836.615	5113
836.753	5197
836.891	5254
837.029	5204
837.167	5193
837.305	5181
837.443	5155
837.58	5056
837.718	5273
837.856	5212
837.993	5193
838.131	5185
838.269	5170
838.406	5223
838.544	5143
838.681	5033
838.819	4991
838.956	4946
839.094	4942
839.231	4953
839.369	5014
839.506	5383
839.643	5296
839.781	5083
839.918	5045
840.055	5075
840.193	5109
840.33	5056
840.467	5151
840.604	5159
840.742	5410
840.879	5037
841.016	5067
841.153	5151
841.29	5376
841.427	5372
841.564	5345
841.701	5391
841.838	5292
841.975	5284
842.112	5231
842.249	5140
842.385	5132
842.522	5360
842.659	5147
842.796	5185
842.933	5212
843.069	5155
843.206	5155
843.343	5288
843.479	5288
843.616	5261
843.752	5029
843.889	5018
844.025	5197
844.162	5041
844.298	5204
844.435	5124
844.571	5067
844.708	5235
844.844	5322
844.98	5383
845.117	5269
845.253	5102
845.389	5102
845.525	5151
845.661	5083
845.798	5052
845.934	5071
846.07	5037
846.206	5208
846.342	5292
846.478	5159
846.614	5052
846.75	4991
846.886	4946
847.022	5117
847.158	5056
847.294	5075
847.429	5090
847.565	5064
847.701	5315
847.837	4908
847.972	4816
848.108	4957
848.244	4919
848.379	4790
848.515	4755
848.65	4702
848.786	4752
848.921	4755
849.057	4877
849.192	4911
849.328	4824
849.463	4812
849.598	4778
849.734	4744
849.869	4717
850.004	4611
850.14	4729
850.275	4588
850.41	4516
850.545	4592
850.68	4622
850.815	4653
850.95	4645
851.085	4835
851.22	4748
851.355	4687
851.49	4630
851.625	4596
851.76	4634
851.895	4592
852.03	4535
852.165	4702
852.299	4721
852.434	4786
852.569	4717
852.703	4782
852.838	4824
852.973	4904
853.107	4866
853.242	4767
853.376	4656
853.511	4561
853.645	4592
853.78	4793
853.914	4736
854.048	4660
854.183	4599
854.317	4706
854.451	4896
854.585	4675
854.72	4599
854.854	4786
854.988	4592
855.122	4615
855.256	4527
855.39	4664
855.524	4797
855.658	4721
855.792	4710
855.926	4748
856.06	4790
856.194	4778
856.327	4702
856.461	4596
856.595	4634
856.729	4611
856.862	4660
856.996	4717
857.13	4736
857.263	4721
857.397	4771
857.53	4630
857.664	4748
857.797	4744
857.931	4782
858.064	4721
858.197	4733
858.331	4672
858.464	4599
858.597	4538
858.731	4645
858.864	4615
858.997	4626
859.13	4660
859.263	4641
859.396	4649
859.529	4584
859.662	4542
859.795	4531
859.928	4656
860.061	4774
860.194	4771
860.327	4649
860.46	4561
860.592	4710
860.725	4752
860.858	4774
860.99	4538
861.123	4531
861.256	4554
861.388	4637
861.521	5436
861.653	4504
861.786	4451
861.918	4451
862.05	4527
862.183	4538
862.315	4611
862.447	4660
862.58	4546
862.712	4470
862.844	4367
862.976	4478
863.108	4474
863.24	4698
863.372	4352
863.504	4413
863.636	4363
863.768	4500
863.9	4451
864.032	4375
864.164	4383
864.296	4451
864.428	4531
864.559	4542
864.691	4523
864.823	4565
864.954	4481
865.086	4531
865.217	4478
865.349	4367
865.48	4466
865.612	4489
865.743	4687
865.875	4470
866.006	4443
866.137	4489
866.269	4447
866.4	4440
866.531	4424
866.662	4405
866.793	4379
866.924	4440
867.055	4459
867.186	4409
867.317	4474
867.448	4360
867.579	4383
867.71	4436
867.841	4341
867.972	4424
868.103	4485
868.233	4466
868.364	4455
868.495	4436
868.625	4668
868.756	4702
868.886	4580
869.017	4683
869.147	4717
869.278	4744
869.408	4687
869.539	4687
869.669	4725
869.799	4653
869.929	4744
870.06	4774
870.19	4942
870.32	4930
870.45	4919
870.58	5025
870.71	5067
870.84	5117
870.97	4980
871.1	4873
871.23	5132
871.36	5147
871.489	5029
871.619	5102
871.749	5075
871.879	5128
872.008	5208
872.138	5048
872.267	5006
872.397	4881
872.526	4847
872.656	4706
872.785	4809
872.915	4968
873.044	5029
873.173	4938
873.303	5022
873.432	4885
873.561	4968
873.69	4892
873.819	4873
873.948	4946
874.077	4786
874.206	4778
874.335	4786
874.464	4938
874.593	5094
874.722	4942
874.851	5098
874.979	5033
875.108	5033
875.237	4942
875.365	4915
875.494	4911
875.623	4984
875.751	4793
875.88	4866
876.008	4987
876.136	5029
876.265	5151
876.393	5383
876.521	5242
876.65	5273
876.778	5147
876.906	5056
877.034	5033
877.162	5086
877.29	5025
877.418	5071
877.546	5079
877.674	4995
877.802	4984
877.93	5048
878.058	4911
878.185	4873
878.313	5003
878.441	4968
878.568	4748
878.696	4904
878.824	4995
878.951	4987
879.079	5086
879.206	5258
879.333	5067
879.461	4934
879.588	5010
879.715	5098
879.842	5220
879.97	5033
880.097	4793
880.224	4748
880.351	4858
880.478	4881
880.605	4816
880.732	4782
880.859	5079
880.986	4889
881.112	4843
881.239	4774
881.366	4668
881.493	4577
881.619	4592
881.746	4645
881.872	4634
881.999	4637
882.125	4698
882.252	4782
882.378	4835
882.505	4911
882.631	4870
882.757	4687
882.883	4759
883.01	4721
883.136	4702
883.262	4592
883.388	4645
883.514	4774
883.64	4873
883.766	4793
883.892	4698
884.018	4721
884.143	4866
884.269	5018
884.395	4683
884.52	4615
884.646	4660
884.772	4615
884.897	4637
885.023	4668
885.148	4816
885.274	4866
885.399	4809
885.524	4717
885.65	4706
885.775	4721
885.9	4721
886.025	4866
886.15	4824
886.275	4664
886.4	4675
886.525	4744
886.65	4694
886.775	4717
886.9	4911
887.025	5025
887.149	4809
887.274	4618
887.399	4596
887.523	4630
887.648	4561
887.773	4542
887.897	4733
888.021	4835
888.146	4618
888.27	4858
888.395	4881
888.519	4778
888.643	4790
888.767	4809
888.891	4694
889.015	4584
889.139	4622
889.263	4588
889.387	4740
889.511	4892
889.635	4801
889.759	4668
889.883	4698
890.006	4771
890.13	4820
890.254	4660
890.377	4698
890.501	4561
890.624	4500
890.748	4664
890.871	4485
890.995	4455
891.118	4424
891.241	4466
891.364	4558
891.488	4607
891.611	4470
891.734	4569
891.857	4615
891.98	4588
892.103	4634
892.226	4611
892.349	4580
892.471	4413
892.594	4577
892.717	4584
892.839	4554
892.962	4599
893.085	4687
893.207	4618
893.33	4451
893.452	4531
893.575	4687
893.697	4622
893.819	4828
893.941	4809
894.064	4835
894.186	4592
894.308	4546
894.43	4725
894.552	4793
894.674	4809
894.796	4558
894.918	4580
895.04	4615
895.161	4710
895.283	4653
895.405	4577
895.526	4645
895.648	4687
895.769	4668
895.891	4733
896.012	4729
896.134	4740
896.255	4675
896.376	4656
896.498	4599
896.619	4683
896.74	4592
896.861	4645
896.982	4843
897.103	5079
897.224	4831
897.345	4748
897.466	4634
897.587	4721
897.708	4812
897.828	4828
897.949	4694
898.07	4573
898.19	4618
898.311	4839
898.431	4717
898.552	4759
898.672	4847
898.792	4831
898.913	4744
899.033	4634
899.153	4497
899.273	4443
899.393	4485
899.513	4512
899.633	4519
899.753	4542
899.873	4569
899.993	4592
900.113	4538
900.232	4603
900.352	4561
900.472	4523
900.591	4451
900.711	4512
900.83	4455
900.95	4615
901.069	4626
901.189	4565
901.308	4367
901.427	4318
901.546	4341
901.665	4413
901.784	4470
901.904	4405
902.023	4314
902.141	4234
902.26	4215
902.379	4287
902.498	4242
902.617	4257
902.735	4386
902.854	4413
902.973	4360
903.091	4181
903.21	4280
903.328	4287
903.446	4253
903.565	4291
903.683	4306
903.801	4219
903.919	4417
904.038	4440
904.156	4333
904.274	4455
904.392	4383
904.51	4447
904.627	4455
904.745	4542
904.863	4599
904.981	4379
905.098	4303
905.216	4348
905.334	4470
905.451	4413
905.569	4402
905.686	4523
905.803	4599
905.921	4424
906.038	4565
906.155	4459
906.272	4390
906.389	4462
906.506	4333
906.623	4402
906.74	4398
906.857	4299
906.974	4363
907.091	4554
907.208	4679
907.324	4542
907.441	4459
907.557	4329
907.674	4329
907.79	4265
907.907	4417
908.023	4512
908.139	4447
908.256	4493
908.372	4493
908.488	4466
908.604	4333
908.72	4352
908.836	4367
908.952	4379
909.068	4424
909.184	4611
909.3	4504
909.415	4577
909.531	4573
909.647	4341
909.762	4322
909.878	4375
909.993	4455
910.108	4424
910.224	4409
910.339	4489
910.454	4379
910.57	4367
910.685	4280
910.8	4668
910.915	4577
911.03	4500
911.145	4356
911.259	4303
911.374	4341
911.489	4265
911.604	4249
911.718	4150
911.833	4223
911.947	4071
912.062	4040
912.176	4200
912.291	4246
912.405	4227
912.519	4489
912.633	4569
912.748	4341
912.862	4295
912.976	4185
913.09	4112
913.204	4185
913.318	4234
913.431	4417
913.545	4390
913.659	4367
913.772	4417
913.886	4242
914	4200
914.113	4356
914.226	4428
914.34	4375
914.453	4204
914.566	4428
914.68	4352
914.793	4291
914.906	4158
915.019	4177
915.132	4078
915.245	4230
915.358	4230
915.47	4276
915.583	4249
915.696	4257
915.809	4402
915.921	4428
916.034	4291
916.146	4230
916.259	4246
916.371	4341
916.483	4417
916.595	4249
916.708	4314
916.82	4268
916.932	4325
917.044	4284
917.156	4318
917.268	4242
917.38	4261
917.491	4268
917.603	4344
917.715	4436
917.826	4394
917.938	4371
918.049	4257
918.161	4383
918.272	4573
918.384	4550
918.495	4432
918.606	4295
918.717	4253
918.828	4306
918.939	4367
919.05	4253
919.161	4303
919.272	4128
919.383	4238
919.494	4447
919.604	4637
919.715	4432
919.826	4310
919.936	4409
920.047	4470
920.157	4516
920.267	4675
920.378	4546
920.488	4527
920.598	4717
920.708	4911
920.818	4729
920.928	4763
921.038	4995
921.148	4911
921.258	4607
921.368	4550
921.477	4504
921.587	4417
921.697	4360
921.806	4527
921.916	4421
922.025	4272
922.134	4234
922.244	4234
922.353	4322
922.462	4166
922.571	4131
922.68	4002
922.789	4013
922.898	4029
923.007	4032
923.116	4128
923.224	4071
923.333	4063
923.442	3964
923.55	3949
923.659	4090
923.767	4082
923.876	3987
923.984	4116
924.092	3964
924.201	4071
924.309	4120
924.417	4101
924.525	4074
924.633	4109
924.741	5041
924.849	3899
924.956	4166
925.064	3964
925.172	3899
925.279	3964
925.387	4059
925.494	4071
925.602	4234
925.709	4188
925.816	4071
925.924	4124
926.031	4238
926.138	4166
926.245	4196
926.352	4097
926.459	4234
926.566	4329
926.673	4158
926.779	4013
926.886	4063
926.993	4002
927.099	3975
927.206	3964
927.312	3972
927.419	4013
927.525	4006
927.631	4097
927.737	3941
927.843	3926
927.95	3857
928.056	3941
928.162	3998
928.267	4067
928.373	4721
928.479	4143
928.585	3854
928.69	4017
928.796	4086
928.901	3972
929.007	3869
929.112	4013
929.218	3956
929.323	3945
929.428	3983
929.533	4105
929.638	3907
929.743	3941
929.848	3998
929.953	3994
930.058	3918
930.163	3804
930.267	3800
930.372	3964
930.477	3762
930.581	4101
930.685	3972
930.79	3827
930.894	3884
930.998	3865
931.103	3994
931.207	3705
931.311	3686
931.415	3679
931.519	3473
931.623	3530
