Data from test_V78500241_742.txt Node
Date: Fri Mar 25 16:54:09 CST 2022
User: usil
Spectrometer: V785-0024
Trigger mode: 0
Integration Time (sec): 4.000000E-1
Scans to average: 1
Nonlinearity correction enabled: false
Boxcar width: 0
Storing dark spectrum: false
XAxis mode: Wavelengths
Number of Pixels in Spectrum: 1024
>>>>>Begin Spectral Data<<<<<
801.071	8058
801.214	7947
801.356	7849
801.499	7860
801.641	7833
801.783	7849
801.926	8012
802.068	8016
802.211	7982
802.353	7967
802.496	7909
802.638	7875
802.78	7849
802.923	7887
803.065	7822
803.208	7887
803.35	7970
803.492	8142
803.635	8176
803.777	8035
803.919	8073
804.061	8347
804.204	8084
804.346	8031
804.488	8016
804.63	8107
804.773	7974
804.915	8100
805.057	8244
805.199	8103
805.341	8134
805.483	8229
805.626	8180
805.768	8035
805.91	8069
806.052	8191
806.194	8058
806.336	8172
806.478	8046
806.62	8005
806.762	8054
806.904	8259
807.046	8385
807.188	8294
807.33	8290
807.472	8294
807.614	8130
807.756	8077
807.898	8001
808.04	7883
808.182	7913
808.324	7963
808.465	7921
808.607	8043
808.749	8126
808.891	8123
809.033	8256
809.174	8206
809.316	8046
809.458	8024
809.6	7982
809.741	8020
809.883	8008
810.025	8031
810.166	8005
810.308	8039
810.45	8039
810.591	7902
810.733	7674
810.875	7601
811.016	7537
811.158	7468
811.299	7556
811.441	7658
811.582	7666
811.724	7548
811.865	7502
812.007	7533
812.148	7643
812.29	7616
812.431	7753
812.573	7890
812.714	7944
812.855	8084
812.997	8153
813.138	8343
813.279	8180
813.421	8107
813.562	7986
813.703	7925
813.845	7788
813.986	7438
814.127	7259
814.268	7228
814.41	7168
814.551	7164
814.692	7183
814.833	6962
814.974	7080
815.115	7061
815.256	6951
815.397	6970
815.539	6932
815.68	6844
815.821	6738
815.962	6878
816.103	6829
816.244	6688
816.385	6639
816.526	6582
816.666	6410
816.807	6315
816.948	6418
817.089	6403
817.23	6422
817.371	6361
817.512	6414
817.653	6395
817.793	6315
817.934	6410
818.075	6433
818.216	6418
818.356	6357
818.497	6205
818.638	6121
818.778	6140
818.919	6152
819.06	6083
819.2	6289
819.341	6342
819.481	6346
819.622	6521
819.762	6719
819.903	6681
820.043	6544
820.184	6544
820.324	6551
820.465	6635
820.605	6627
820.746	6604
820.886	6521
821.026	6639
821.167	6719
821.307	6749
821.447	6764
821.588	6635
821.728	6544
821.868	6483
822.008	6338
822.149	6395
822.289	6315
822.429	6087
822.569	6072
822.709	6091
822.849	5935
822.99	5931
823.13	5882
823.27	5904
823.41	5794
823.55	5767
823.69	5722
823.83	5733
823.97	5649
824.11	5520
824.25	5474
824.389	5608
824.529	5539
824.669	5501
824.809	5627
824.949	5688
825.089	5589
825.228	5562
825.368	5398
825.508	5360
825.648	5383
825.787	5326
825.927	5345
826.067	5273
826.206	5273
826.346	5341
826.485	5357
826.625	5379
826.765	5528
826.904	5501
827.044	5277
827.183	5193
827.323	5102
827.462	5269
827.601	5162
827.741	5151
827.88	5223
828.02	5147
828.159	5220
828.298	5258
828.437	5353
828.577	5277
828.716	5421
828.855	5326
828.994	5185
829.134	5162
829.273	5170
829.412	5162
829.551	5178
829.69	5197
829.829	5273
829.968	5334
830.107	5284
830.246	5273
830.385	5128
830.524	5132
830.663	5056
830.802	4972
830.941	4908
831.08	4866
831.219	4972
831.357	4957
831.496	5159
831.635	4911
831.774	4790
831.913	4801
832.051	4744
832.19	4725
832.329	4809
832.467	4721
832.606	4596
832.744	4675
832.883	4733
833.022	4698
833.16	4759
833.299	4801
833.437	4801
833.576	4828
833.714	4839
833.852	4881
833.991	4866
834.129	4938
834.267	4889
834.406	4923
834.544	4946
834.682	5014
834.821	4972
834.959	5140
835.097	5003
835.235	5117
835.373	5079
835.511	5121
835.65	5003
835.788	4976
835.926	4862
836.064	4881
836.202	4889
836.34	5185
836.478	5212
836.615	5113
836.753	5181
836.891	5246
837.029	5246
837.167	5170
837.305	5159
837.443	5143
837.58	5067
837.718	5254
837.856	5189
837.993	5094
838.131	5212
838.269	5166
838.406	5181
838.544	5181
838.681	5052
838.819	4999
838.956	4858
839.094	4858
839.231	4919
839.369	5052
839.506	5383
839.643	5208
839.781	5083
839.918	4995
840.055	5113
840.193	5079
840.33	5067
840.467	5147
840.604	5201
840.742	5440
840.879	5113
841.016	5060
841.153	5117
841.29	5383
841.427	5364
841.564	5311
841.701	5334
841.838	5235
841.975	5258
842.112	5216
842.249	5117
842.385	5113
842.522	5391
842.659	5170
842.796	5140
842.933	5193
843.069	5143
843.206	5166
843.343	5337
843.479	5181
843.616	5254
843.752	5041
843.889	4972
844.025	5254
844.162	5022
844.298	5216
844.435	5113
844.571	5018
844.708	5246
844.844	5303
844.98	5326
845.117	5231
845.253	5090
845.389	5060
845.525	5178
845.661	5147
845.798	5006
845.934	5086
846.07	5025
846.206	5227
846.342	5258
846.478	5132
846.614	4961
846.75	4965
846.886	4938
847.022	5064
847.158	5006
847.294	5090
847.429	5029
847.565	5045
847.701	5334
847.837	4873
847.972	4774
848.108	4900
848.244	4927
848.379	4790
848.515	4721
848.65	4668
848.786	4763
848.921	4725
849.057	4828
849.192	4896
849.328	4858
849.463	4812
849.598	4801
849.734	4771
849.869	4717
850.004	4531
850.14	4618
850.275	4531
850.41	4516
850.545	4565
850.68	4588
850.815	4615
850.95	4565
851.085	4786
851.22	4759
851.355	4656
851.49	4599
851.625	4599
851.76	4573
851.895	4516
852.03	4542
852.165	4660
852.299	4679
852.434	4744
852.569	4740
852.703	4691
852.838	4820
852.973	4862
853.107	4896
853.242	4702
853.376	4653
853.511	4531
853.645	4634
853.78	4744
853.914	4653
854.048	4630
854.183	4645
854.317	4672
854.451	4790
854.585	4645
854.72	4660
854.854	4752
854.988	4603
855.122	4599
855.256	4535
855.39	4683
855.524	4763
855.658	4656
855.792	4721
855.926	4702
856.06	4771
856.194	4809
856.327	4687
856.461	4607
856.595	4630
856.729	4611
856.862	4816
856.996	4725
857.13	4706
857.263	4752
857.397	4778
857.53	4679
857.664	4714
857.797	4816
857.931	4759
858.064	4748
858.197	4744
858.331	4664
858.464	4672
858.597	4558
858.731	4626
858.864	4660
858.997	4672
859.13	4679
859.263	4679
859.396	4714
859.529	4588
859.662	4584
859.795	4565
859.928	4622
860.061	4782
860.194	4752
860.327	4607
860.46	4565
860.592	4733
860.725	4725
860.858	4736
860.99	4577
861.123	4527
861.256	4542
861.388	4641
861.521	5455
861.653	4478
861.786	4485
861.918	4478
862.05	4569
862.183	4603
862.315	4641
862.447	4679
862.58	4626
862.712	4432
862.844	4352
862.976	4523
863.108	4516
863.24	4889
863.372	4367
863.504	4470
863.636	4451
863.768	4550
863.9	4485
864.032	4424
864.164	4402
864.296	4470
864.428	4577
864.559	4615
864.691	4577
864.823	4554
864.954	4558
865.086	4512
865.217	4485
865.349	4455
865.48	4440
865.612	4527
865.743	4679
865.875	4504
866.006	4500
866.137	4474
866.269	4432
866.4	4478
866.531	4424
866.662	4436
866.793	4436
866.924	4485
867.055	4527
867.186	4489
867.317	4443
867.448	4398
867.579	4436
867.71	4383
867.841	4379
867.972	4535
868.103	4489
868.233	4478
868.364	4504
868.495	4508
868.625	4691
868.756	4809
868.886	4630
869.017	4641
869.147	4812
869.278	4790
869.408	4694
869.539	4702
869.669	4721
869.799	4660
869.929	4801
870.06	4782
870.19	4972
870.32	4965
870.45	4995
870.58	5037
870.71	5109
870.84	5121
870.97	4987
871.1	4927
871.23	5136
871.36	5121
871.489	5041
871.619	5086
871.749	5124
871.879	5151
872.008	5178
872.138	5098
872.267	5006
872.397	4854
872.526	4839
872.656	4755
872.785	4816
872.915	4927
873.044	5071
873.173	4923
873.303	5025
873.432	4965
873.561	4991
873.69	4892
873.819	4908
873.948	4908
874.077	4824
874.206	4759
874.335	4820
874.464	4919
874.593	5060
874.722	4927
874.851	5083
874.979	5083
875.108	5045
875.237	4892
875.365	4885
875.494	4873
875.623	4965
875.751	4847
875.88	4892
876.008	5006
876.136	5052
876.265	5254
876.393	5395
876.521	5254
876.65	5231
876.778	5136
876.906	5075
877.034	5003
877.162	5113
877.29	5037
877.418	5052
877.546	5048
877.674	5128
877.802	5075
877.93	4995
878.058	4972
878.185	4892
878.313	4968
878.441	4965
878.568	4812
878.696	4915
878.824	5029
878.951	5037
879.079	5155
879.206	5318
879.333	5159
879.461	4976
879.588	5067
879.715	5117
879.842	5246
879.97	5003
880.097	4797
880.224	4771
880.351	4824
880.478	4850
880.605	4755
880.732	4797
880.859	5121
880.986	4927
881.112	4961
881.239	4820
881.366	4702
881.493	4649
881.619	4607
881.746	4668
881.872	4725
881.999	4634
882.125	4698
882.252	4847
882.378	4858
882.505	4987
882.631	4885
882.757	4725
882.883	4774
883.01	4752
883.136	4694
883.262	4599
883.388	4634
883.514	4782
883.64	4885
883.766	4839
883.892	4698
884.018	4744
884.143	4915
884.269	5014
884.395	4714
884.52	4656
884.646	4672
884.772	4584
884.897	4599
885.023	4691
885.148	4763
885.274	4839
885.399	4812
885.524	4752
885.65	4683
885.775	4824
885.9	4736
886.025	4870
886.15	4797
886.275	4793
886.4	4679
886.525	4710
886.65	4714
886.775	4702
886.9	4904
887.025	5094
887.149	4774
887.274	4706
887.399	4611
887.523	4649
887.648	4630
887.773	4622
887.897	4774
888.021	4771
888.146	4694
888.27	4854
888.395	4938
888.519	4835
888.643	4797
888.767	4866
888.891	4710
889.015	4596
889.139	4725
889.263	4653
889.387	4767
889.511	4953
889.635	4778
889.759	4664
889.883	4660
890.006	4801
890.13	4870
890.254	4656
890.377	4752
890.501	4546
890.624	4550
890.748	4637
890.871	4538
890.995	4462
891.118	4421
891.241	4516
891.364	4565
891.488	4679
891.611	4512
891.734	4554
891.857	4622
891.98	4592
892.103	4649
892.226	4561
892.349	4588
892.471	4394
892.594	4550
892.717	4630
892.839	4603
892.962	4588
893.085	4698
893.207	4580
893.33	4417
893.452	4554
893.575	4736
893.697	4630
893.819	4812
893.941	4862
894.064	4744
894.186	4577
894.308	4569
894.43	4767
894.552	4881
894.674	4763
894.796	4599
894.918	4615
895.04	4607
895.161	4736
895.283	4694
895.405	4550
895.526	4637
895.648	4740
895.769	4706
895.891	4729
896.012	4717
896.134	4767
896.255	4698
896.376	4672
896.498	4649
896.619	4694
896.74	4649
896.861	4691
896.982	4927
897.103	5124
897.224	4835
897.345	4755
897.466	4702
897.587	4816
897.708	4911
897.828	4786
897.949	4706
898.07	4565
898.19	4645
898.311	4828
898.431	4672
898.552	4763
898.672	4835
898.792	4843
898.913	4786
899.033	4626
899.153	4561
899.273	4424
899.393	4512
899.513	4500
899.633	4538
899.753	4569
899.873	4508
899.993	4577
900.113	4519
900.232	4615
900.352	4546
900.472	4481
900.591	4402
900.711	4493
900.83	4432
900.95	4637
901.069	4672
901.189	4558
901.308	4386
901.427	4268
901.546	4432
901.665	4462
901.784	4500
901.904	4436
902.023	4348
902.141	4215
902.26	4188
902.379	4314
902.498	4272
902.617	4261
902.735	4421
902.854	4405
902.973	4394
903.091	4219
903.21	4246
903.328	4322
903.446	4253
903.565	4265
903.683	4379
903.801	4299
903.919	4421
904.038	4436
904.156	4375
904.274	4470
904.392	4390
904.51	4451
904.627	4455
904.745	4653
904.863	4664
904.981	4417
905.098	4329
905.216	4363
905.334	4459
905.451	4478
905.569	4451
905.686	4542
905.803	4615
905.921	4474
906.038	4561
906.155	4504
906.272	4436
906.389	4493
906.506	4333
906.623	4405
906.74	4405
906.857	4322
906.974	4367
907.091	4603
907.208	4702
907.324	4607
907.441	4508
907.557	4325
907.674	4356
907.79	4318
907.907	4398
908.023	4508
908.139	4527
908.256	4440
908.372	4470
908.488	4447
908.604	4371
908.72	4329
908.836	4383
908.952	4375
909.068	4462
909.184	4603
909.3	4535
909.415	4626
909.531	4565
909.647	4383
909.762	4348
909.878	4402
909.993	4436
910.108	4459
910.224	4462
910.339	4470
910.454	4421
910.57	4333
910.685	4344
910.8	4668
910.915	4596
911.03	4489
911.145	4322
911.259	4367
911.374	4402
911.489	4325
911.604	4337
911.718	4219
911.833	4211
911.947	4109
912.062	4051
912.176	4215
912.291	4249
912.405	4268
912.519	4466
912.633	4516
912.748	4352
912.862	4276
912.976	4257
913.09	4093
913.204	4204
913.318	4265
913.431	4371
913.545	4371
913.659	4443
913.772	4402
913.886	4230
914	4253
914.113	4352
914.226	4440
914.34	4402
914.453	4227
914.566	4424
914.68	4314
914.793	4310
914.906	4207
915.019	4139
915.132	4071
915.245	4147
915.358	4204
915.47	4253
915.583	4280
915.696	4295
915.809	4440
915.921	4421
916.034	4303
916.146	4265
916.259	4234
916.371	4402
916.483	4371
916.595	4280
916.708	4329
916.82	4348
916.932	4329
917.044	4314
917.156	4325
917.268	4219
917.38	4249
917.491	4257
917.603	4375
917.715	4394
917.826	4440
917.938	4436
918.049	4268
918.161	4405
918.272	4550
918.384	4485
918.495	4470
918.606	4333
918.717	4272
918.828	4386
918.939	4383
919.05	4272
919.161	4337
919.272	4166
919.383	4219
919.494	4451
919.604	4637
919.715	4451
919.826	4344
919.936	4375
920.047	4542
920.157	4474
920.267	4729
920.378	4535
920.488	4516
920.598	4668
920.708	4904
920.818	4755
920.928	4759
921.038	4919
921.148	4881
921.258	4618
921.368	4615
921.477	4489
921.587	4455
921.697	4409
921.806	4569
921.916	4455
922.025	4215
922.134	4268
922.244	4272
922.353	4314
922.462	4219
922.571	4124
922.68	4032
922.789	3987
922.898	4044
923.007	3956
923.116	4093
923.224	4059
923.333	4124
923.442	3987
923.55	4002
923.659	4044
923.767	4109
923.876	4006
923.984	4120
924.092	4010
924.201	4082
924.309	4112
924.417	4158
924.525	4074
924.633	4131
924.741	4889
924.849	3972
924.956	4112
925.064	3960
925.172	3945
925.279	3968
925.387	4090
925.494	4093
925.602	4230
925.709	4207
925.816	4078
925.924	4158
926.031	4287
926.138	4219
926.245	4253
926.352	4128
926.459	4299
926.566	4386
926.673	4196
926.779	4105
926.886	4109
926.993	3994
927.099	4010
927.206	3991
927.312	3983
927.419	4051
927.525	4051
927.631	4158
927.737	4029
927.843	4002
927.95	3854
928.056	4044
928.162	4063
928.267	4082
928.373	4721
928.479	4188
928.585	3941
928.69	4086
928.796	4086
928.901	4010
929.007	3888
929.112	4063
929.218	4036
929.323	4017
929.428	3941
929.533	4143
929.638	3983
929.743	4021
929.848	4082
929.953	4032
930.058	4002
930.163	3846
930.267	3869
930.372	4017
930.477	3838
930.581	4116
930.685	4002
930.79	3842
930.894	3937
930.998	3911
931.103	4105
931.207	3766
931.311	3717
931.415	3709
931.519	3580
931.623	3606
