Data from test_V78500241_78.txt Node
Date: Fri Mar 25 16:49:32 CST 2022
User: usil
Spectrometer: V785-0024
Trigger mode: 0
Integration Time (sec): 4.000000E-1
Scans to average: 1
Nonlinearity correction enabled: false
Boxcar width: 0
Storing dark spectrum: false
XAxis mode: Wavelengths
Number of Pixels in Spectrum: 1024
>>>>>Begin Spectral Data<<<<<
801.071	8039
801.214	8115
801.356	7917
801.499	7974
801.641	7860
801.783	7860
801.926	8020
802.068	7906
802.211	8073
802.353	8073
802.496	7860
802.638	7963
802.78	7967
802.923	7989
803.065	7925
803.208	7890
803.35	7947
803.492	8084
803.635	8111
803.777	7989
803.919	8130
804.061	8465
804.204	8149
804.346	8107
804.488	7944
804.63	8100
804.773	8016
804.915	8046
805.057	8225
805.199	8050
805.341	8221
805.483	8244
805.626	8195
805.768	8172
805.91	8187
806.052	8157
806.194	8058
806.336	8366
806.478	8096
806.62	8183
806.762	8229
806.904	8317
807.046	8484
807.188	8400
807.33	8339
807.472	8317
807.614	8233
807.756	8123
807.898	8046
808.04	7951
808.182	8016
808.324	7909
808.465	7909
808.607	7936
808.749	8111
808.891	8229
809.033	8267
809.174	8176
809.316	8001
809.458	8024
809.6	8027
809.741	8005
809.883	8073
810.025	8092
810.166	8115
810.308	8073
810.45	8016
810.591	7902
810.733	7746
810.875	7708
811.016	7559
811.158	7533
811.299	7666
811.441	7750
811.582	7784
811.724	7620
811.865	7575
812.007	7689
812.148	7693
812.29	7651
812.431	7780
812.573	7955
812.714	8020
812.855	8229
812.997	8313
813.138	8370
813.279	8221
813.421	8119
813.562	8020
813.703	7940
813.845	7731
813.986	7396
814.127	7285
814.268	7221
814.41	7301
814.551	7194
814.692	7259
814.833	7129
814.974	7145
815.115	7168
815.256	7000
815.397	6928
815.539	6966
815.68	6863
815.821	6760
815.962	6875
816.103	6852
816.244	6734
816.385	6684
816.526	6665
816.666	6544
816.807	6361
816.948	6513
817.089	6544
817.23	6471
817.371	6441
817.512	6388
817.653	6475
817.793	6426
817.934	6433
818.075	6551
818.216	6509
818.356	6467
818.497	6292
818.638	6175
818.778	6201
818.919	6175
819.06	6243
819.2	6327
819.341	6369
819.481	6357
819.622	6578
819.762	6859
819.903	6741
820.043	6612
820.184	6631
820.324	6650
820.465	6749
820.605	6681
820.746	6673
820.886	6559
821.026	6707
821.167	6764
821.307	6825
821.447	6772
821.588	6700
821.728	6589
821.868	6528
822.008	6372
822.149	6369
822.289	6380
822.429	6175
822.569	6102
822.709	6152
822.849	5950
822.99	5874
823.13	5958
823.27	5920
823.41	5756
823.55	5817
823.69	5844
823.83	5832
823.97	5688
824.11	5604
824.25	5554
824.389	5547
824.529	5630
824.669	5543
824.809	5665
824.949	5695
825.089	5657
825.228	5611
825.368	5402
825.508	5383
825.648	5383
825.787	5440
825.927	5436
826.067	5307
826.206	5311
826.346	5436
826.485	5478
826.625	5474
826.765	5516
826.904	5478
827.044	5292
827.183	5227
827.323	5155
827.462	5318
827.601	5174
827.741	5235
827.88	5254
828.02	5162
828.159	5216
828.298	5280
828.437	5444
828.577	5280
828.716	5512
828.855	5280
828.994	5181
829.134	5166
829.273	5242
829.412	5174
829.551	5143
829.69	5239
829.829	5242
829.968	5376
830.107	5288
830.246	5303
830.385	5231
830.524	5197
830.663	5067
830.802	5006
830.941	4930
831.08	4892
831.219	5006
831.357	5018
831.496	5208
831.635	4930
831.774	4881
831.913	4839
832.051	4767
832.19	4820
832.329	4900
832.467	4771
832.606	4675
832.744	4736
832.883	4687
833.022	4778
833.16	4843
833.299	4881
833.437	4892
833.576	4797
833.714	4858
833.852	4892
833.991	4961
834.129	4995
834.267	4961
834.406	4881
834.544	4991
834.682	5033
834.821	5018
834.959	5193
835.097	5033
835.235	5185
835.373	5109
835.511	5117
835.65	5052
835.788	5098
835.926	4965
836.064	4892
836.202	4968
836.34	5220
836.478	5258
836.615	5151
836.753	5216
836.891	5277
837.029	5265
837.167	5254
837.305	5208
837.443	5246
837.58	5170
837.718	5330
837.856	5242
837.993	5223
838.131	5292
838.269	5246
838.406	5239
838.544	5204
838.681	5033
838.819	5018
838.956	4930
839.094	4934
839.231	4995
839.369	5128
839.506	5509
839.643	5345
839.781	5102
839.918	5071
840.055	5121
840.193	5140
840.33	5128
840.467	5201
840.604	5143
840.742	5433
840.879	5124
841.016	5098
841.153	5170
841.29	5463
841.427	5330
841.564	5349
841.701	5353
841.838	5337
841.975	5216
842.112	5330
842.249	5136
842.385	5117
842.522	5337
842.659	5216
842.796	5178
842.933	5220
843.069	5204
843.206	5132
843.343	5318
843.479	5292
843.616	5280
843.752	5014
843.889	5033
844.025	5227
844.162	5010
844.298	5208
844.435	5117
844.571	5098
844.708	5212
844.844	5341
844.98	5368
845.117	5296
845.253	5201
845.389	5090
845.525	5181
845.661	5174
845.798	5098
845.934	5155
846.07	5079
846.206	5254
846.342	5311
846.478	5193
846.614	5018
846.75	5006
846.886	4968
847.022	5197
847.158	5033
847.294	5109
847.429	5071
847.565	5098
847.701	5379
847.837	4896
847.972	4862
848.108	4942
848.244	4930
848.379	4790
848.515	4786
848.65	4736
848.786	4812
848.921	4801
849.057	4873
849.192	4927
849.328	4831
849.463	4911
849.598	4889
849.734	4782
849.869	4694
850.004	4637
850.14	4702
850.275	4645
850.41	4516
850.545	4573
850.68	4637
850.815	4698
850.95	4649
851.085	4877
851.22	4767
851.355	4717
851.49	4698
851.625	4694
851.76	4687
851.895	4618
852.03	4588
852.165	4649
852.299	4774
852.434	4812
852.569	4767
852.703	4824
852.838	4839
852.973	4968
853.107	4930
853.242	4797
853.376	4694
853.511	4561
853.645	4668
853.78	4824
853.914	4691
854.048	4694
854.183	4637
854.317	4702
854.451	4881
854.585	4710
854.72	4706
854.854	4763
854.988	4626
855.122	4694
855.256	4523
855.39	4672
855.524	4828
855.658	4755
855.792	4683
855.926	4740
856.06	4786
856.194	4809
856.327	4691
856.461	4626
856.595	4603
856.729	4660
856.862	4763
856.996	4687
857.13	4740
857.263	4816
857.397	4831
857.53	4706
857.664	4725
857.797	4801
857.931	4850
858.064	4725
858.197	4740
858.331	4691
858.464	4645
858.597	4584
858.731	4626
858.864	4675
858.997	4611
859.13	4683
859.263	4706
859.396	4744
859.529	4592
859.662	4565
859.795	4546
859.928	4702
860.061	4717
860.194	4786
860.327	4611
860.46	4588
860.592	4748
860.725	4694
860.858	4774
860.99	4596
861.123	4481
861.256	4584
861.388	4687
861.521	5322
861.653	4470
861.786	4466
861.918	4508
862.05	4584
862.183	4546
862.315	4645
862.447	4683
862.58	4542
862.712	4413
862.844	4337
862.976	4538
863.108	4470
863.24	4930
863.372	4371
863.504	4504
863.636	4485
863.768	4500
863.9	4470
864.032	4386
864.164	4390
864.296	4497
864.428	4588
864.559	4599
864.691	4554
864.823	4531
864.954	4546
865.086	4531
865.217	4459
865.349	4413
865.48	4493
865.612	4497
865.743	4626
865.875	4474
866.006	4432
866.137	4485
866.269	4500
866.4	4474
866.531	4466
866.662	4409
866.793	4402
866.924	4478
867.055	4527
867.186	4466
867.317	4443
867.448	4417
867.579	4432
867.71	4440
867.841	4428
867.972	4489
868.103	4493
868.233	4493
868.364	4451
868.495	4554
868.625	4702
868.756	4744
868.886	4622
869.017	4653
869.147	4725
869.278	4793
869.408	4675
869.539	4637
869.669	4748
869.799	4687
869.929	4771
870.06	4729
870.19	4987
870.32	4972
870.45	4976
870.58	5048
870.71	5189
870.84	5147
870.97	4984
871.1	4892
871.23	5193
871.36	5170
871.489	5025
871.619	5090
871.749	5124
871.879	5136
872.008	5174
872.138	5033
872.267	5022
872.397	4877
872.526	4828
872.656	4782
872.785	4820
872.915	4953
873.044	5075
873.173	4976
873.303	5018
873.432	5010
873.561	4991
873.69	4942
873.819	4904
873.948	4919
874.077	4923
874.206	4771
874.335	4797
874.464	4961
874.593	5060
874.722	5010
874.851	5132
874.979	5075
875.108	5041
875.237	4927
875.365	4862
875.494	4930
875.623	4991
875.751	4873
875.88	4908
876.008	4999
876.136	5071
876.265	5151
876.393	5330
876.521	5277
876.65	5250
876.778	5151
876.906	5124
877.034	5060
877.162	5071
877.29	4976
877.418	5052
877.546	5090
877.674	5075
877.802	5109
877.93	5094
878.058	4919
878.185	4904
878.313	4957
878.441	4999
878.568	4820
878.696	4904
878.824	4972
878.951	5067
879.079	5128
879.206	5311
879.333	5132
879.461	5041
879.588	5037
879.715	5086
879.842	5216
879.97	5025
880.097	4797
880.224	4752
880.351	4793
880.478	4835
880.605	4850
880.732	4839
880.859	5121
880.986	4911
881.112	4927
881.239	4885
881.366	4717
881.493	4637
881.619	4603
881.746	4679
881.872	4672
881.999	4660
882.125	4664
882.252	4858
882.378	4866
882.505	4957
882.631	4824
882.757	4683
882.883	4755
883.01	4752
883.136	4645
883.262	4596
883.388	4596
883.514	4847
883.64	4942
883.766	4816
883.892	4744
884.018	4733
884.143	4904
884.269	5014
884.395	4725
884.52	4702
884.646	4672
884.772	4588
884.897	4558
885.023	4714
885.148	4870
885.274	4908
885.399	4778
885.524	4668
885.65	4733
885.775	4721
885.9	4744
886.025	4927
886.15	4771
886.275	4778
886.4	4675
886.525	4763
886.65	4687
886.775	4725
886.9	4900
887.025	5029
887.149	4805
887.274	4672
887.399	4615
887.523	4618
887.648	4649
887.773	4618
887.897	4771
888.021	4797
888.146	4675
888.27	4828
888.395	4877
888.519	4862
888.643	4824
888.767	4850
888.891	4702
889.015	4675
889.139	4645
889.263	4630
889.387	4740
889.511	4885
889.635	4782
889.759	4649
889.883	4672
890.006	4740
890.13	4862
890.254	4664
890.377	4752
890.501	4538
890.624	4565
890.748	4683
890.871	4546
890.995	4489
891.118	4413
891.241	4569
891.364	4630
891.488	4660
891.611	4474
891.734	4592
891.857	4656
891.98	4592
892.103	4717
892.226	4660
892.349	4588
892.471	4440
892.594	4577
892.717	4656
892.839	4573
892.962	4615
893.085	4660
893.207	4645
893.33	4474
893.452	4523
893.575	4645
893.697	4607
893.819	4828
893.941	4881
894.064	4774
894.186	4622
894.308	4561
894.43	4733
894.552	4828
894.674	4744
894.796	4577
894.918	4637
895.04	4584
895.161	4725
895.283	4721
895.405	4649
895.526	4706
895.648	4710
895.769	4740
895.891	4778
896.012	4767
896.134	4744
896.255	4721
896.376	4668
896.498	4637
896.619	4710
896.74	4645
896.861	4679
896.982	4942
897.103	5109
897.224	4801
897.345	4767
897.466	4702
897.587	4694
897.708	4896
897.828	4835
897.949	4683
898.07	4596
898.19	4694
898.311	4892
898.431	4687
898.552	4771
898.672	4839
898.792	4831
898.913	4790
899.033	4649
899.153	4561
899.273	4466
899.393	4554
899.513	4558
899.633	4596
899.753	4603
899.873	4535
899.993	4645
900.113	4580
900.232	4622
900.352	4565
900.472	4481
900.591	4421
900.711	4546
900.83	4447
900.95	4626
901.069	4721
901.189	4607
901.308	4394
901.427	4360
901.546	4432
901.665	4542
901.784	4512
901.904	4436
902.023	4356
902.141	4227
902.26	4227
902.379	4310
902.498	4310
902.617	4295
902.735	4417
902.854	4390
902.973	4363
903.091	4268
903.21	4261
903.328	4352
903.446	4249
903.565	4272
903.683	4390
903.801	4238
903.919	4432
904.038	4489
904.156	4314
904.274	4504
904.392	4405
904.51	4451
904.627	4504
904.745	4653
904.863	4656
904.981	4402
905.098	4314
905.216	4379
905.334	4447
905.451	4432
905.569	4440
905.686	4558
905.803	4592
905.921	4459
906.038	4603
906.155	4462
906.272	4421
906.389	4466
906.506	4367
906.623	4421
906.74	4424
906.857	4322
906.974	4390
907.091	4592
907.208	4672
907.324	4596
907.441	4485
907.557	4379
907.674	4379
907.79	4375
907.907	4363
908.023	4508
908.139	4538
908.256	4440
908.372	4489
908.488	4489
908.604	4428
908.72	4371
908.836	4402
908.952	4390
909.068	4440
909.184	4618
909.3	4497
909.415	4618
909.531	4592
909.647	4363
909.762	4402
909.878	4363
909.993	4481
910.108	4402
910.224	4455
910.339	4508
910.454	4398
910.57	4398
910.685	4344
910.8	4672
910.915	4607
911.03	4478
911.145	4360
911.259	4310
911.374	4440
911.489	4295
911.604	4291
911.718	4166
911.833	4219
911.947	4112
912.062	4055
912.176	4276
912.291	4257
912.405	4261
912.519	4504
912.633	4561
912.748	4386
912.862	4329
912.976	4230
913.09	4173
913.204	4200
913.318	4257
913.431	4409
913.545	4409
913.659	4462
913.772	4367
913.886	4257
914	4265
914.113	4447
914.226	4459
914.34	4405
914.453	4253
914.566	4462
914.68	4310
914.793	4360
914.906	4177
915.019	4143
915.132	4131
915.245	4188
915.358	4238
915.47	4242
915.583	4280
915.696	4360
915.809	4443
915.921	4466
916.034	4306
916.146	4318
916.259	4230
916.371	4443
916.483	4348
916.595	4314
916.708	4360
916.82	4348
916.932	4325
917.044	4329
917.156	4375
917.268	4249
917.38	4329
917.491	4303
917.603	4314
917.715	4470
917.826	4497
917.938	4383
918.049	4276
918.161	4440
918.272	4615
918.384	4554
918.495	4485
918.606	4333
918.717	4272
918.828	4367
918.939	4432
919.05	4310
919.161	4348
919.272	4135
919.383	4272
919.494	4481
919.604	4645
919.715	4474
919.826	4337
919.936	4402
920.047	4558
920.157	4531
920.267	4702
920.378	4580
920.488	4558
920.598	4755
920.708	4927
920.818	4801
920.928	4801
921.038	5006
921.148	4976
921.258	4607
921.368	4558
921.477	4542
921.587	4478
921.697	4398
921.806	4622
921.916	4500
922.025	4299
922.134	4306
922.244	4276
922.353	4303
922.462	4200
922.571	4150
922.68	4036
922.789	4017
922.898	4086
923.007	4025
923.116	4105
923.224	4143
923.333	4090
923.442	4025
923.55	4040
923.659	4082
923.767	4116
923.876	4055
923.984	4147
924.092	4013
924.201	4078
924.309	4158
924.417	4196
924.525	4067
924.633	4128
924.741	4908
924.849	3915
924.956	4143
925.064	3987
925.172	3937
925.279	4032
925.387	4082
925.494	4086
925.602	4272
925.709	4211
925.816	4055
925.924	4143
926.031	4265
926.138	4242
926.245	4257
926.352	4143
926.459	4318
926.566	4329
926.673	4158
926.779	4086
926.886	4147
926.993	4006
927.099	3979
927.206	3953
927.312	3983
927.419	4097
927.525	4044
927.631	4177
927.737	4036
927.843	4002
927.95	3857
928.056	4017
928.162	4040
928.267	4116
928.373	4736
928.479	4105
928.585	3873
928.69	4074
928.796	4116
928.901	3964
929.007	3896
929.112	4025
929.218	4013
929.323	3987
929.428	4006
929.533	4173
929.638	4006
929.743	3964
929.848	4082
929.953	4025
930.058	3941
930.163	3800
930.267	3873
930.372	3975
930.477	3804
930.581	4093
930.685	3907
930.79	3819
930.894	3937
930.998	3854
931.103	4063
931.207	3770
931.311	3694
931.415	3724
931.519	3553
931.623	3580
