Data from test_V78500241_800.txt Node
Date: Fri Mar 25 16:54:33 CST 2022
User: usil
Spectrometer: V785-0024
Trigger mode: 0
Integration Time (sec): 4.000000E-1
Scans to average: 1
Nonlinearity correction enabled: false
Boxcar width: 0
Storing dark spectrum: false
XAxis mode: Wavelengths
Number of Pixels in Spectrum: 1024
>>>>>Begin Spectral Data<<<<<
801.071	8008
801.214	7940
801.356	7871
801.499	7830
801.641	7772
801.783	7871
801.926	7951
802.068	7932
802.211	7936
802.353	7959
802.496	7795
802.638	7890
802.78	7936
802.923	7906
803.065	7807
803.208	7947
803.35	8103
803.492	8157
803.635	8157
803.777	8016
803.919	8149
804.061	8305
804.204	8088
804.346	7997
804.488	7955
804.63	8046
804.773	8020
804.915	8054
805.057	8279
805.199	8103
805.341	8202
805.483	8218
805.626	8195
805.768	8119
805.91	8126
806.052	8157
806.194	8096
806.336	8176
806.478	8035
806.62	8031
806.762	8119
806.904	8233
807.046	8423
807.188	8286
807.33	8229
807.472	8343
807.614	8164
807.756	8054
807.898	7913
808.04	7875
808.182	7864
808.324	7852
808.465	7864
808.607	8050
808.749	8001
808.891	8153
809.033	8317
809.174	8229
809.316	8046
809.458	8081
809.6	7963
809.741	7947
809.883	7989
810.025	8115
810.166	7993
810.308	8024
810.45	8024
810.591	7818
810.733	7731
810.875	7727
811.016	7544
811.158	7472
811.299	7544
811.441	7719
811.582	7685
811.724	7544
811.865	7499
812.007	7601
812.148	7540
812.29	7529
812.431	7647
812.573	7784
812.714	7951
812.855	8073
812.997	8134
813.138	8366
813.279	8111
813.421	8100
813.562	7982
813.703	7856
813.845	7792
813.986	7521
814.127	7251
814.268	7289
814.41	7251
814.551	7126
814.692	7198
814.833	7042
814.974	7088
815.115	7133
815.256	7008
815.397	6939
815.539	6943
815.68	6825
815.821	6757
815.962	6821
816.103	6760
816.244	6734
816.385	6612
816.526	6635
816.666	6483
816.807	6334
816.948	6395
817.089	6464
817.23	6376
817.371	6395
817.512	6426
817.653	6414
817.793	6350
817.934	6414
818.075	6479
818.216	6433
818.356	6422
818.497	6300
818.638	6030
818.778	6117
818.919	6121
819.06	6095
819.2	6292
819.341	6258
819.481	6285
819.622	6525
819.762	6779
819.903	6665
820.043	6620
820.184	6521
820.324	6574
820.465	6597
820.605	6631
820.746	6585
820.886	6475
821.026	6601
821.167	6707
821.307	6722
821.447	6821
821.588	6677
821.728	6631
821.868	6475
822.008	6277
822.149	6350
822.289	6357
822.429	6102
822.569	6057
822.709	6098
822.849	5901
822.99	5847
823.13	5923
823.27	5954
823.41	5767
823.55	5775
823.69	5802
823.83	5764
823.97	5676
824.11	5474
824.25	5516
824.389	5547
824.529	5551
824.669	5497
824.809	5589
824.949	5627
825.089	5573
825.228	5547
825.368	5387
825.508	5303
825.648	5341
825.787	5349
825.927	5360
826.067	5284
826.206	5261
826.346	5387
826.485	5326
826.625	5368
826.765	5562
826.904	5471
827.044	5242
827.183	5174
827.323	5102
827.462	5212
827.601	5128
827.741	5174
827.88	5197
828.02	5105
828.159	5235
828.298	5303
828.437	5315
828.577	5292
828.716	5532
828.855	5330
828.994	5170
829.134	5143
829.273	5242
829.412	5075
829.551	5105
829.69	5136
829.829	5223
829.968	5334
830.107	5288
830.246	5258
830.385	5212
830.524	5166
830.663	5041
830.802	4999
830.941	4870
831.08	4889
831.219	4938
831.357	4961
831.496	5143
831.635	4892
831.774	4862
831.913	4850
832.051	4687
832.19	4721
832.329	4835
832.467	4740
832.606	4641
832.744	4683
832.883	4702
833.022	4786
833.16	4774
833.299	4805
833.437	4805
833.576	4828
833.714	4820
833.852	4873
833.991	4904
834.129	4980
834.267	4957
834.406	4870
834.544	4976
834.682	4953
834.821	4957
834.959	5124
835.097	4987
835.235	5132
835.373	5109
835.511	5029
835.65	5006
835.788	5025
835.926	4889
836.064	4843
836.202	4938
836.34	5140
836.478	5197
836.615	5094
836.753	5223
836.891	5315
837.029	5227
837.167	5155
837.305	5121
837.443	5105
837.58	5029
837.718	5242
837.856	5147
837.993	5098
838.131	5204
838.269	5235
838.406	5189
838.544	5102
838.681	5052
838.819	5018
838.956	4862
839.094	4934
839.231	4999
839.369	5037
839.506	5402
839.643	5307
839.781	5060
839.918	5033
840.055	5075
840.193	5121
840.33	5128
840.467	5124
840.604	5140
840.742	5376
840.879	5098
841.016	5117
841.153	5132
841.29	5364
841.427	5349
841.564	5292
841.701	5334
841.838	5280
841.975	5193
842.112	5273
842.249	5117
842.385	5117
842.522	5280
842.659	5212
842.796	5197
842.933	5201
843.069	5147
843.206	5147
843.343	5261
843.479	5208
843.616	5246
843.752	4980
843.889	5041
844.025	5231
844.162	5010
844.298	5181
844.435	5048
844.571	5025
844.708	5166
844.844	5311
844.98	5337
845.117	5307
845.253	5083
845.389	5064
845.525	5132
845.661	5094
845.798	5010
845.934	5132
846.07	5079
846.206	5189
846.342	5280
846.478	5193
846.614	5060
846.75	4972
846.886	4961
847.022	5132
847.158	5010
847.294	5056
847.429	5105
847.565	5052
847.701	5292
847.837	4820
847.972	4805
848.108	4938
848.244	4949
848.379	4759
848.515	4748
848.65	4660
848.786	4706
848.921	4748
849.057	4843
849.192	4870
849.328	4774
849.463	4831
849.598	4816
849.734	4725
849.869	4634
850.004	4588
850.14	4649
850.275	4588
850.41	4519
850.545	4527
850.68	4580
850.815	4596
850.95	4615
851.085	4858
851.22	4710
851.355	4687
851.49	4588
851.625	4664
851.76	4615
851.895	4565
852.03	4523
852.165	4592
852.299	4694
852.434	4736
852.569	4782
852.703	4778
852.838	4793
852.973	4927
853.107	4930
853.242	4698
853.376	4691
853.511	4527
853.645	4607
853.78	4790
853.914	4637
854.048	4649
854.183	4641
854.317	4683
854.451	4824
854.585	4656
854.72	4615
854.854	4733
854.988	4527
855.122	4607
855.256	4538
855.39	4630
855.524	4771
855.658	4702
855.792	4672
855.926	4714
856.06	4736
856.194	4820
856.327	4675
856.461	4569
856.595	4618
856.729	4641
856.862	4763
856.996	4618
857.13	4733
857.263	4767
857.397	4748
857.53	4660
857.664	4710
857.797	4744
857.931	4801
858.064	4668
858.197	4694
858.331	4641
858.464	4611
858.597	4550
858.731	4615
858.864	4641
858.997	4565
859.13	4656
859.263	4660
859.396	4683
859.529	4535
859.662	4580
859.795	4558
859.928	4611
860.061	4748
860.194	4759
860.327	4573
860.46	4561
860.592	4694
860.725	4694
860.858	4710
860.99	4561
861.123	4493
861.256	4558
861.388	4569
861.521	5140
861.653	4455
861.786	4424
861.918	4417
862.05	4542
862.183	4565
862.315	4596
862.447	4702
862.58	4485
862.712	4413
862.844	4322
862.976	4459
863.108	4512
863.24	4790
863.372	4299
863.504	4424
863.636	4367
863.768	4451
863.9	4462
864.032	4375
864.164	4363
864.296	4470
864.428	4569
864.559	4546
864.691	4493
864.823	4474
864.954	4478
865.086	4512
865.217	4474
865.349	4402
865.48	4440
865.612	4485
865.743	4687
865.875	4428
866.006	4386
866.137	4504
866.269	4398
866.4	4379
866.531	4386
866.662	4390
866.793	4421
866.924	4394
867.055	4500
867.186	4436
867.317	4379
867.448	4363
867.579	4421
867.71	4409
867.841	4333
867.972	4459
868.103	4417
868.233	4443
868.364	4432
868.495	4489
868.625	4672
868.756	4733
868.886	4573
869.017	4599
869.147	4721
869.278	4797
869.408	4679
869.539	4596
869.669	4691
869.799	4630
869.929	4767
870.06	4698
870.19	4908
870.32	4904
870.45	4885
870.58	4972
870.71	5075
870.84	5105
870.97	4934
871.1	4843
871.23	5075
871.36	5094
871.489	4999
871.619	5003
871.749	5071
871.879	5098
872.008	5162
872.138	5025
872.267	4968
872.397	4858
872.526	4812
872.656	4736
872.785	4771
872.915	4934
873.044	5045
873.173	4911
873.303	4953
873.432	4942
873.561	4953
873.69	4839
873.819	4847
873.948	4953
874.077	4797
874.206	4790
874.335	4793
874.464	4889
874.593	5045
874.722	4961
874.851	5071
874.979	5060
875.108	5045
875.237	4873
875.365	4866
875.494	4870
875.623	5045
875.751	4831
875.88	4885
876.008	4915
876.136	5003
876.265	5147
876.393	5284
876.521	5265
876.65	5181
876.778	5136
876.906	5067
877.034	5006
877.162	5052
877.29	4946
877.418	5067
877.546	5018
877.674	5033
877.802	5022
877.93	4953
878.058	4908
878.185	4835
878.313	4938
878.441	4957
878.568	4809
878.696	4911
878.824	4949
878.951	4965
879.079	5075
879.206	5280
879.333	5060
879.461	4934
879.588	5010
879.715	5128
879.842	5189
879.97	4984
880.097	4755
880.224	4736
880.351	4767
880.478	4809
880.605	4736
880.732	4771
880.859	5109
880.986	4885
881.112	4915
881.239	4736
881.366	4702
881.493	4603
881.619	4565
881.746	4622
881.872	4603
881.999	4615
882.125	4637
882.252	4786
882.378	4736
882.505	4972
882.631	4778
882.757	4717
882.883	4691
883.01	4698
883.136	4664
883.262	4592
883.388	4599
883.514	4816
883.64	4820
883.766	4809
883.892	4683
884.018	4664
884.143	4896
884.269	5033
884.395	4656
884.52	4611
884.646	4626
884.772	4584
884.897	4546
885.023	4664
885.148	4831
885.274	4816
885.399	4797
885.524	4729
885.65	4729
885.775	4725
885.9	4660
886.025	4839
886.15	4778
886.275	4691
886.4	4679
886.525	4698
886.65	4637
886.775	4634
886.9	4889
887.025	5048
887.149	4786
887.274	4630
887.399	4538
887.523	4546
887.648	4569
887.773	4588
887.897	4755
888.021	4771
888.146	4683
888.27	4733
888.395	4911
888.519	4828
888.643	4820
888.767	4774
888.891	4656
889.015	4592
889.139	4645
889.263	4596
889.387	4698
889.511	4892
889.635	4782
889.759	4596
889.883	4611
890.006	4691
890.13	4854
890.254	4622
890.377	4641
890.501	4535
890.624	4519
890.748	4637
890.871	4478
890.995	4443
891.118	4371
891.241	4478
891.364	4527
891.488	4577
891.611	4497
891.734	4569
891.857	4565
891.98	4565
892.103	4660
892.226	4561
892.349	4478
892.471	4360
892.594	4516
892.717	4599
892.839	4546
892.962	4649
893.085	4653
893.207	4554
893.33	4489
893.452	4527
893.575	4694
893.697	4580
893.819	4790
893.941	4847
894.064	4778
894.186	4603
894.308	4607
894.43	4710
894.552	4885
894.674	4763
894.796	4573
894.918	4592
895.04	4573
895.161	4729
895.283	4683
895.405	4588
895.526	4668
895.648	4679
895.769	4698
895.891	4733
896.012	4698
896.134	4767
896.255	4691
896.376	4664
896.498	4622
896.619	4649
896.74	4630
896.861	4656
896.982	4923
897.103	5124
897.224	4858
897.345	4744
897.466	4656
897.587	4782
897.708	4889
897.828	4828
897.949	4675
898.07	4611
898.19	4672
898.311	4911
898.431	4717
898.552	4801
898.672	4866
898.792	4881
898.913	4736
899.033	4660
899.153	4573
899.273	4485
899.393	4512
899.513	4546
899.633	4558
899.753	4542
899.873	4542
899.993	4641
900.113	4580
900.232	4637
900.352	4561
900.472	4481
900.591	4455
900.711	4558
900.83	4470
900.95	4588
901.069	4733
901.189	4519
901.308	4367
901.427	4348
901.546	4398
901.665	4512
901.784	4538
901.904	4432
902.023	4390
902.141	4257
902.26	4150
902.379	4325
902.498	4276
902.617	4261
902.735	4405
902.854	4447
902.973	4352
903.091	4268
903.21	4303
903.328	4314
903.446	4280
903.565	4325
903.683	4379
903.801	4329
903.919	4409
904.038	4493
904.156	4371
904.274	4451
904.392	4451
904.51	4424
904.627	4527
904.745	4618
904.863	4660
904.981	4443
905.098	4306
905.216	4386
905.334	4455
905.451	4455
905.569	4417
905.686	4577
905.803	4588
905.921	4428
906.038	4558
906.155	4523
906.272	4459
906.389	4462
906.506	4386
906.623	4413
906.74	4481
906.857	4352
906.974	4367
907.091	4599
907.208	4668
907.324	4588
907.441	4519
907.557	4413
907.674	4352
907.79	4333
907.907	4417
908.023	4512
908.139	4481
908.256	4443
908.372	4538
908.488	4478
908.604	4352
908.72	4390
908.836	4402
908.952	4394
909.068	4508
909.184	4611
909.3	4531
909.415	4618
909.531	4592
909.647	4390
909.762	4398
909.878	4352
909.993	4379
910.108	4440
910.224	4466
910.339	4485
910.454	4436
910.57	4390
910.685	4379
910.8	4634
910.915	4634
911.03	4542
911.145	4390
911.259	4337
911.374	4390
911.489	4348
911.604	4276
911.718	4230
911.833	4246
911.947	4128
912.062	4078
912.176	4223
912.291	4318
912.405	4284
912.519	4489
912.633	4504
912.748	4402
912.862	4379
912.976	4230
913.09	4147
913.204	4242
913.318	4272
913.431	4424
913.545	4360
913.659	4451
913.772	4390
913.886	4291
914	4280
914.113	4394
914.226	4436
914.34	4424
914.453	4249
914.566	4455
914.68	4333
914.793	4344
914.906	4169
915.019	4166
915.132	4128
915.245	4211
915.358	4234
915.47	4272
915.583	4303
915.696	4306
915.809	4447
915.921	4451
916.034	4303
916.146	4306
916.259	4238
916.371	4432
916.483	4352
916.595	4291
916.708	4352
916.82	4337
916.932	4421
917.044	4360
917.156	4394
917.268	4238
917.38	4295
917.491	4284
917.603	4360
917.715	4512
917.826	4485
917.938	4402
918.049	4303
918.161	4447
918.272	4607
918.384	4561
918.495	4504
918.606	4325
918.717	4322
918.828	4371
918.939	4402
919.05	4280
919.161	4344
919.272	4154
919.383	4329
919.494	4478
919.604	4634
919.715	4428
919.826	4409
919.936	4455
920.047	4550
920.157	4504
920.267	4793
920.378	4592
920.488	4500
920.598	4736
920.708	4900
920.818	4702
920.928	4839
921.038	4953
921.148	4938
921.258	4668
921.368	4580
921.477	4542
921.587	4531
921.697	4402
921.806	4554
921.916	4440
922.025	4268
922.134	4291
922.244	4276
922.353	4371
922.462	4200
922.571	4135
922.68	4048
922.789	4006
922.898	4078
923.007	4006
923.116	4139
923.224	4090
923.333	4101
923.442	4044
923.55	3991
923.659	4029
923.767	4147
923.876	4013
923.984	4139
924.092	3979
924.201	4101
924.309	4124
924.417	4158
924.525	4078
924.633	4105
924.741	4873
924.849	3956
924.956	4166
925.064	3975
925.172	3941
925.279	3949
925.387	4090
925.494	4109
925.602	4211
925.709	4169
925.816	4093
925.924	4147
926.031	4242
926.138	4169
926.245	4223
926.352	4124
926.459	4268
926.566	4280
926.673	4173
926.779	4112
926.886	4097
926.993	3994
927.099	3960
927.206	3945
927.312	3964
927.419	4055
927.525	4116
927.631	4135
927.737	3979
927.843	3964
927.95	3876
928.056	3937
928.162	4017
928.267	4063
928.373	4714
928.479	4166
928.585	3922
928.69	4025
928.796	4040
928.901	4010
929.007	3903
929.112	4021
929.218	4013
929.323	3991
929.428	3979
929.533	4116
929.638	3949
929.743	3991
929.848	4071
929.953	4017
930.058	3968
930.163	3827
930.267	3846
930.372	4002
930.477	3838
930.581	4124
930.685	4010
930.79	3831
930.894	3892
930.998	3884
931.103	4032
931.207	3743
931.311	3720
931.415	3663
931.519	3500
931.623	3584
