Data from test_V78500241_16.txt Node
Date: Fri Mar 25 16:49:06 CST 2022
User: usil
Spectrometer: V785-0024
Trigger mode: 0
Integration Time (sec): 4.000000E-1
Scans to average: 1
Nonlinearity correction enabled: false
Boxcar width: 0
Storing dark spectrum: false
XAxis mode: Wavelengths
Number of Pixels in Spectrum: 1024
>>>>>Begin Spectral Data<<<<<
801.071	8031
801.214	8130
801.356	8065
801.499	8001
801.641	7875
801.783	7860
801.926	7959
802.068	7970
802.211	8043
802.353	8035
802.496	7944
802.638	7947
802.78	7970
802.923	7951
803.065	7852
803.208	7925
803.35	8069
803.492	8138
803.635	8126
803.777	7989
803.919	8103
804.061	8457
804.204	8164
804.346	8107
804.488	8008
804.63	8145
804.773	7986
804.915	8119
805.057	8317
805.199	8153
805.341	8225
805.483	8271
805.626	8286
805.768	8161
805.91	8218
806.052	8218
806.194	8027
806.336	8336
806.478	8096
806.62	8115
806.762	8161
806.904	8206
807.046	8423
807.188	8381
807.33	8358
807.472	8320
807.614	8145
807.756	8161
807.898	8008
808.04	7944
808.182	7967
808.324	7944
808.465	7970
808.607	8130
808.749	8073
808.891	8199
809.033	8290
809.174	8149
809.316	8035
809.458	8035
809.6	7978
809.741	8020
809.883	8069
810.025	8138
810.166	8096
810.308	8024
810.45	8043
810.591	7928
810.733	7772
810.875	7666
811.016	7578
811.158	7609
811.299	7670
811.441	7792
811.582	7814
811.724	7616
811.865	7567
812.007	7628
812.148	7670
812.29	7658
812.431	7753
812.573	7898
812.714	8058
812.855	8145
812.997	8301
813.138	8324
813.279	8142
813.421	8164
813.562	8039
813.703	7917
813.845	7772
813.986	7483
814.127	7297
814.268	7240
814.41	7236
814.551	7228
814.692	7255
814.833	7107
814.974	7122
815.115	7088
815.256	6962
815.397	6947
815.539	6924
815.68	6882
815.821	6772
815.962	6863
816.103	6871
816.244	6703
816.385	6620
816.526	6620
816.666	6498
816.807	6319
816.948	6479
817.089	6445
817.23	6460
817.371	6418
817.512	6357
817.653	6414
817.793	6414
817.934	6456
818.075	6544
818.216	6521
818.356	6410
818.497	6289
818.638	6148
818.778	6235
818.919	6201
819.06	6243
819.2	6365
819.341	6384
819.481	6384
819.622	6585
819.762	6772
819.903	6726
820.043	6608
820.184	6707
820.324	6665
820.465	6810
820.605	6700
820.746	6654
820.886	6593
821.026	6715
821.167	6711
821.307	6837
821.447	6844
821.588	6620
821.728	6604
821.868	6509
822.008	6395
822.149	6407
822.289	6365
822.429	6262
822.569	6155
822.709	6129
822.849	5984
822.99	5931
823.13	5920
823.27	5954
823.41	5771
823.55	5779
823.69	5794
823.83	5828
823.97	5745
824.11	5619
824.25	5604
824.389	5608
824.529	5604
824.669	5577
824.809	5653
824.949	5691
825.089	5668
825.228	5646
825.368	5402
825.508	5421
825.648	5417
825.787	5425
825.927	5406
826.067	5345
826.206	5334
826.346	5410
826.485	5455
826.625	5433
826.765	5611
826.904	5516
827.044	5284
827.183	5261
827.323	5223
827.462	5269
827.601	5235
827.741	5223
827.88	5201
828.02	5155
828.159	5280
828.298	5353
828.437	5440
828.577	5330
828.716	5532
828.855	5303
828.994	5216
829.134	5204
829.273	5292
829.412	5208
829.551	5185
829.69	5216
829.829	5288
829.968	5391
830.107	5269
830.246	5364
830.385	5208
830.524	5189
830.663	5147
830.802	5006
830.941	4892
831.08	4892
831.219	5025
831.357	4984
831.496	5132
831.635	4942
831.774	4953
831.913	4854
832.051	4782
832.19	4771
832.329	4850
832.467	4736
832.606	4641
832.744	4782
832.883	4755
833.022	4706
833.16	4866
833.299	4839
833.437	4820
833.576	4873
833.714	4892
833.852	4900
833.991	4919
834.129	5003
834.267	4968
834.406	4942
834.544	5025
834.682	5052
834.821	5037
834.959	5197
835.097	5048
835.235	5204
835.373	5147
835.511	5143
835.65	5102
835.788	5083
835.926	4930
836.064	4915
836.202	4949
836.34	5189
836.478	5273
836.615	5132
836.753	5261
836.891	5349
837.029	5261
837.167	5201
837.305	5189
837.443	5193
837.58	5132
837.718	5239
837.856	5201
837.993	5227
838.131	5273
838.269	5250
838.406	5242
838.544	5258
838.681	5052
838.819	5006
838.956	4938
839.094	4965
839.231	5014
839.369	5128
839.506	5459
839.643	5288
839.781	5109
839.918	5018
840.055	5159
840.193	5124
840.33	5121
840.467	5170
840.604	5212
840.742	5417
840.879	5136
841.016	5151
841.153	5193
841.29	5383
841.427	5318
841.564	5345
841.701	5398
841.838	5330
841.975	5277
842.112	5357
842.249	5159
842.385	5105
842.522	5357
842.659	5166
842.796	5185
842.933	5284
843.069	5147
843.206	5208
843.343	5280
843.479	5273
843.616	5334
843.752	5128
843.889	5022
844.025	5250
844.162	5033
844.298	5261
844.435	5166
844.571	5067
844.708	5212
844.844	5318
844.98	5402
845.117	5345
845.253	5140
845.389	5109
845.525	5189
845.661	5220
845.798	5090
845.934	5208
846.07	5067
846.206	5239
846.342	5284
846.478	5201
846.614	5048
846.75	5003
846.886	4995
847.022	5212
847.158	5025
847.294	5143
847.429	5136
847.565	5132
847.701	5360
847.837	4911
847.972	4870
848.108	4987
848.244	4946
848.379	4824
848.515	4729
848.65	4771
848.786	4767
848.921	4778
849.057	4900
849.192	4946
849.328	4831
849.463	4919
849.598	4835
849.734	4752
849.869	4664
850.004	4615
850.14	4675
850.275	4626
850.41	4637
850.545	4584
850.68	4660
850.815	4618
850.95	4672
851.085	4858
851.22	4801
851.355	4687
851.49	4660
851.625	4660
851.76	4694
851.895	4611
852.03	4626
852.165	4672
852.299	4778
852.434	4801
852.569	4801
852.703	4809
852.838	4930
852.973	4957
853.107	4984
853.242	4736
853.376	4714
853.511	4599
853.645	4683
853.78	4858
853.914	4744
854.048	4725
854.183	4675
854.317	4736
854.451	4885
854.585	4725
854.72	4717
854.854	4839
854.988	4618
855.122	4706
855.256	4622
855.39	4706
855.524	4858
855.658	4736
855.792	4793
855.926	4793
856.06	4809
856.194	4877
856.327	4778
856.461	4668
856.595	4649
856.729	4714
856.862	4824
856.996	4752
857.13	4774
857.263	4805
857.397	4866
857.53	4755
857.664	4824
857.797	4831
857.931	4873
858.064	4752
858.197	4839
858.331	4759
858.464	4717
858.597	4577
858.731	4717
858.864	4744
858.997	4668
859.13	4702
859.263	4786
859.396	4793
859.529	4660
859.662	4691
859.795	4622
859.928	4725
860.061	4858
860.194	4805
860.327	4641
860.46	4626
860.592	4782
860.725	4843
860.858	4828
860.99	4691
861.123	4649
861.256	4596
861.388	4687
861.521	5532
861.653	4626
861.786	4523
861.918	4542
862.05	4611
862.183	4645
862.315	4641
862.447	4748
862.58	4645
862.712	4455
862.844	4413
862.976	4596
863.108	4535
863.24	4957
863.372	4383
863.504	4546
863.636	4550
863.768	4527
863.9	4516
864.032	4436
864.164	4459
864.296	4531
864.428	4618
864.559	4637
864.691	4603
864.823	4569
864.954	4569
865.086	4622
865.217	4554
865.349	4516
865.48	4550
865.612	4580
865.743	4725
865.875	4584
866.006	4478
866.137	4538
866.269	4519
866.4	4459
866.531	4519
866.662	4489
866.793	4508
866.924	4470
867.055	4588
867.186	4538
867.317	4474
867.448	4470
867.579	4500
867.71	4474
867.841	4428
867.972	4561
868.103	4558
868.233	4459
868.364	4542
868.495	4561
868.625	4725
868.756	4877
868.886	4626
869.017	4694
869.147	4885
869.278	4858
869.408	4733
869.539	4706
869.669	4831
869.799	4774
869.929	4862
870.06	4816
870.19	5010
870.32	5022
870.45	5045
870.58	5117
870.71	5155
870.84	5147
870.97	5060
871.1	5029
871.23	5128
871.36	5212
871.489	5166
871.619	5159
871.749	5151
871.879	5189
872.008	5235
872.138	5151
872.267	5086
872.397	4923
872.526	4870
872.656	4809
872.785	4938
872.915	5014
873.044	5147
873.173	4965
873.303	5029
873.432	5022
873.561	5052
873.69	4930
873.819	4957
873.948	4957
874.077	4873
874.206	4854
874.335	4889
874.464	4953
874.593	5109
874.722	5079
874.851	5239
874.979	5117
875.108	5075
875.237	5010
875.365	4957
875.494	4957
875.623	5048
875.751	4953
875.88	4934
876.008	5071
876.136	5083
876.265	5250
876.393	5414
876.521	5368
876.65	5292
876.778	5292
876.906	5216
877.034	5102
877.162	5140
877.29	5102
877.418	5174
877.546	5151
877.674	5109
877.802	5132
877.93	5075
878.058	5014
878.185	4919
878.313	5014
878.441	5033
878.568	4858
878.696	4946
878.824	5025
878.951	5071
879.079	5223
879.206	5341
879.333	5174
879.461	5060
879.588	5128
879.715	5143
879.842	5315
879.97	5102
880.097	4896
880.224	4828
880.351	4881
880.478	4900
880.605	4915
880.732	4839
880.859	5193
880.986	4995
881.112	5010
881.239	4828
881.366	4771
881.493	4694
881.619	4634
881.746	4721
881.872	4721
881.999	4733
882.125	4710
882.252	4824
882.378	4915
882.505	5010
882.631	4831
882.757	4771
882.883	4782
883.01	4816
883.136	4725
883.262	4736
883.388	4683
883.514	4930
883.64	4984
883.766	4862
883.892	4725
884.018	4786
884.143	4999
884.269	5041
884.395	4733
884.52	4771
884.646	4763
884.772	4630
884.897	4649
885.023	4687
885.148	4877
885.274	4949
885.399	4866
885.524	4782
885.65	4767
885.775	4824
885.9	4748
886.025	4892
886.15	4877
886.275	4824
886.4	4774
886.525	4786
886.65	4714
886.775	4729
886.9	4987
887.025	5155
887.149	4953
887.274	4778
887.399	4679
887.523	4691
887.648	4664
887.773	4675
887.897	4805
888.021	4870
888.146	4729
888.27	4919
888.395	5033
888.519	4889
888.643	4850
888.767	4923
888.891	4786
889.015	4687
889.139	4755
889.263	4653
889.387	4862
889.511	4984
889.635	4866
889.759	4694
889.883	4771
890.006	4835
890.13	4904
890.254	4755
890.377	4729
890.501	4615
890.624	4596
890.748	4740
890.871	4580
890.995	4546
891.118	4459
891.241	4592
891.364	4634
891.488	4687
891.611	4626
891.734	4565
891.857	4710
891.98	4649
892.103	4694
892.226	4725
892.349	4615
892.471	4493
892.594	4672
892.717	4660
892.839	4641
892.962	4649
893.085	4763
893.207	4706
893.33	4561
893.452	4577
893.575	4710
893.697	4679
893.819	4900
893.941	4892
894.064	4828
894.186	4698
894.308	4645
894.43	4733
894.552	4892
894.674	4831
894.796	4626
894.918	4637
895.04	4656
895.161	4759
895.283	4736
895.405	4618
895.526	4752
895.648	4797
895.769	4725
895.891	4763
896.012	4774
896.134	4839
896.255	4698
896.376	4710
896.498	4656
896.619	4725
896.74	4706
896.861	4790
896.982	5060
897.103	5147
897.224	4900
897.345	4831
897.466	4790
897.587	4820
897.708	4972
897.828	4797
897.949	4801
898.07	4637
898.19	4694
898.311	4927
898.431	4774
898.552	4828
898.672	4934
898.792	4862
898.913	4786
899.033	4706
899.153	4596
899.273	4550
899.393	4580
899.513	4580
899.633	4637
899.753	4630
899.873	4558
899.993	4687
900.113	4626
900.232	4675
900.352	4618
900.472	4558
900.591	4447
900.711	4561
900.83	4516
900.95	4668
901.069	4828
901.189	4615
901.308	4428
901.427	4409
901.546	4428
901.665	4588
901.784	4512
901.904	4443
902.023	4314
902.141	4284
902.26	4268
902.379	4379
902.498	4337
902.617	4291
902.735	4443
902.854	4497
902.973	4481
903.091	4268
903.21	4265
903.328	4352
903.446	4363
903.565	4310
903.683	4474
903.801	4360
903.919	4516
904.038	4504
904.156	4337
904.274	4493
904.392	4481
904.51	4512
904.627	4523
904.745	4645
904.863	4698
904.981	4447
905.098	4322
905.216	4497
905.334	4508
905.451	4466
905.569	4497
905.686	4634
905.803	4626
905.921	4508
906.038	4634
906.155	4538
906.272	4489
906.389	4554
906.506	4405
906.623	4421
906.74	4455
906.857	4402
906.974	4428
907.091	4615
907.208	4752
907.324	4649
907.441	4523
907.557	4424
907.674	4398
907.79	4428
907.907	4478
908.023	4558
908.139	4512
908.256	4523
908.372	4523
908.488	4519
908.604	4386
908.72	4371
908.836	4466
908.952	4462
909.068	4481
909.184	4656
909.3	4523
909.415	4660
909.531	4649
909.647	4451
909.762	4436
909.878	4386
909.993	4516
910.108	4485
910.224	4466
910.339	4512
910.454	4421
910.57	4394
910.685	4424
910.8	4721
910.915	4653
911.03	4531
911.145	4386
911.259	4379
911.374	4447
911.489	4383
911.604	4394
911.718	4287
911.833	4261
911.947	4173
912.062	4059
912.176	4219
912.291	4306
912.405	4310
912.519	4512
912.633	4611
912.748	4413
912.862	4379
912.976	4310
913.09	4185
913.204	4253
913.318	4325
913.431	4432
913.545	4363
913.659	4531
913.772	4436
913.886	4291
914	4325
914.113	4417
914.226	4519
914.34	4489
914.453	4303
914.566	4508
914.68	4390
914.793	4386
914.906	4204
915.019	4162
915.132	4097
915.245	4246
915.358	4242
915.47	4291
915.583	4337
915.696	4398
915.809	4474
915.921	4538
916.034	4295
916.146	4295
916.259	4261
916.371	4451
916.483	4436
916.595	4303
916.708	4386
916.82	4390
916.932	4424
917.044	4371
917.156	4383
917.268	4280
917.38	4383
917.491	4337
917.603	4363
917.715	4481
917.826	4451
917.938	4379
918.049	4276
918.161	4478
918.272	4607
918.384	4569
918.495	4535
918.606	4363
918.717	4325
918.828	4375
918.939	4436
919.05	4325
919.161	4356
919.272	4181
919.383	4276
919.494	4531
919.604	4733
919.715	4462
919.826	4451
919.936	4497
920.047	4599
920.157	4523
920.267	4790
920.378	4634
920.488	4592
920.598	4763
920.708	4927
920.818	4805
920.928	4862
921.038	4987
921.148	4991
921.258	4714
921.368	4615
921.477	4596
921.587	4508
921.697	4417
921.806	4626
921.916	4512
922.025	4356
922.134	4322
922.244	4295
922.353	4386
922.462	4238
922.571	4204
922.68	4124
922.789	4063
922.898	4044
923.007	4105
923.116	4147
923.224	4177
923.333	4147
923.442	4063
923.55	4063
923.659	4112
923.767	4200
923.876	4105
923.984	4204
924.092	4086
924.201	4135
924.309	4169
924.417	4204
924.525	4173
924.633	4162
924.741	5174
924.849	3991
924.956	4204
925.064	4048
925.172	3964
925.279	4032
925.387	4154
925.494	4162
925.602	4268
925.709	4280
925.816	4135
925.924	4200
926.031	4371
926.138	4276
926.245	4306
926.352	4200
926.459	4383
926.566	4413
926.673	4265
926.779	4219
926.886	4154
926.993	4090
927.099	4051
927.206	4036
927.312	4029
927.419	4181
927.525	4143
927.631	4150
927.737	4055
927.843	4071
927.95	3956
928.056	4036
928.162	4116
928.267	4169
928.373	4759
928.479	4181
928.585	3987
928.69	4124
928.796	4173
928.901	4090
929.007	3964
929.112	4124
929.218	4078
929.323	3983
929.428	4017
929.533	4246
929.638	4010
929.743	4078
929.848	4109
929.953	4097
930.058	4029
930.163	3880
930.267	3888
930.372	4112
930.477	3918
930.581	4185
930.685	4067
930.79	3960
930.894	3968
930.998	3949
931.103	4101
931.207	3835
931.311	3755
931.415	3755
931.519	3633
931.623	3603
