Data from test_V78500241_182.txt Node
Date: Fri Mar 25 16:50:16 CST 2022
User: usil
Spectrometer: V785-0024
Trigger mode: 0
Integration Time (sec): 4.000000E-1
Scans to average: 1
Nonlinearity correction enabled: false
Boxcar width: 0
Storing dark spectrum: false
XAxis mode: Wavelengths
Number of Pixels in Spectrum: 1024
>>>>>Begin Spectral Data<<<<<
801.071	8035
801.214	7963
801.356	7856
801.499	7803
801.641	7761
801.783	7875
801.926	7993
802.068	7970
802.211	8012
802.353	7982
802.496	7875
802.638	7921
802.78	7887
802.923	7932
803.065	7871
803.208	7837
803.35	7993
803.492	8031
803.635	8073
803.777	8012
803.919	8073
804.061	8400
804.204	8119
804.346	8069
804.488	7993
804.63	8031
804.773	7970
804.915	8130
805.057	8252
805.199	8119
805.341	8229
805.483	8252
805.626	8191
805.768	8092
805.91	8168
806.052	8157
806.194	8130
806.336	8279
806.478	8103
806.62	8020
806.762	8115
806.904	8210
807.046	8427
807.188	8256
807.33	8286
807.472	8377
807.614	8138
807.756	8103
807.898	8039
808.04	7917
808.182	7925
808.324	7875
808.465	7887
808.607	8054
808.749	8092
808.891	8233
809.033	8267
809.174	8199
809.316	8054
809.458	8058
809.6	7944
809.741	8027
809.883	8050
810.025	8077
810.166	8100
810.308	8001
810.45	7982
810.591	7852
810.733	7780
810.875	7715
811.016	7514
811.158	7521
811.299	7594
811.441	7742
811.582	7696
811.724	7590
811.865	7525
812.007	7616
812.148	7628
812.29	7582
812.431	7776
812.573	7925
812.714	8073
812.855	8164
812.997	8279
813.138	8385
813.279	8126
813.421	8115
813.562	8024
813.703	7898
813.845	7769
813.986	7480
814.127	7259
814.268	7190
814.41	7236
814.551	7156
814.692	7209
814.833	7141
814.974	7122
815.115	7099
815.256	6989
815.397	6924
815.539	6939
815.68	6821
815.821	6814
815.962	6909
816.103	6890
816.244	6707
816.385	6669
816.526	6662
816.666	6566
816.807	6300
816.948	6452
817.089	6441
817.23	6407
817.371	6414
817.512	6410
817.653	6388
817.793	6403
817.934	6418
818.075	6467
818.216	6437
818.356	6422
818.497	6247
818.638	6102
818.778	6117
818.919	6114
819.06	6144
819.2	6319
819.341	6308
819.481	6388
819.622	6509
819.762	6722
819.903	6703
820.043	6563
820.184	6563
820.324	6627
820.465	6749
820.605	6700
820.746	6703
820.886	6547
821.026	6646
821.167	6749
821.307	6757
821.447	6741
821.588	6665
821.728	6620
821.868	6513
822.008	6403
822.149	6361
822.289	6350
822.429	6144
822.569	6095
822.709	6083
822.849	5908
822.99	5901
823.13	5969
823.27	5901
823.41	5798
823.55	5847
823.69	5828
823.83	5828
823.97	5707
824.11	5509
824.25	5501
824.389	5608
824.529	5619
824.669	5535
824.809	5661
824.949	5657
825.089	5608
825.228	5577
825.368	5360
825.508	5376
825.648	5341
825.787	5360
825.927	5406
826.067	5337
826.206	5299
826.346	5410
826.485	5395
826.625	5433
826.765	5535
826.904	5455
827.044	5273
827.183	5178
827.323	5162
827.462	5326
827.601	5201
827.741	5147
827.88	5258
828.02	5147
828.159	5269
828.298	5353
828.437	5383
828.577	5250
828.716	5486
828.855	5345
828.994	5132
829.134	5174
829.273	5185
829.412	5189
829.551	5102
829.69	5151
829.829	5223
829.968	5402
830.107	5307
830.246	5246
830.385	5189
830.524	5193
830.663	5048
830.802	4995
830.941	4858
831.08	4858
831.219	4968
831.357	4999
831.496	5216
831.635	4900
831.774	4831
831.913	4824
832.051	4717
832.19	4774
832.329	4831
832.467	4675
832.606	4641
832.744	4733
832.883	4736
833.022	4721
833.16	4843
833.299	4809
833.437	4835
833.576	4858
833.714	4870
833.852	4858
833.991	4831
834.129	4900
834.267	4953
834.406	4923
834.544	4968
834.682	4968
834.821	4995
834.959	5143
835.097	4949
835.235	5151
835.373	5067
835.511	5090
835.65	5060
835.788	5033
835.926	4896
836.064	4831
836.202	4900
836.34	5155
836.478	5273
836.615	5178
836.753	5220
836.891	5303
837.029	5235
837.167	5216
837.305	5155
837.443	5212
837.58	5075
837.718	5284
837.856	5216
837.993	5132
838.131	5265
838.269	5261
838.406	5235
838.544	5162
838.681	5079
838.819	4953
838.956	4923
839.094	4915
839.231	4968
839.369	5052
839.506	5429
839.643	5288
839.781	5083
839.918	5029
840.055	5090
840.193	5048
840.33	5124
840.467	5178
840.604	5212
840.742	5463
840.879	5121
841.016	5105
841.153	5174
841.29	5410
841.427	5292
841.564	5288
841.701	5334
841.838	5349
841.975	5265
842.112	5277
842.249	5109
842.385	5094
842.522	5311
842.659	5147
842.796	5166
842.933	5166
843.069	5121
843.206	5197
843.343	5318
843.479	5185
843.616	5239
843.752	4972
843.889	4987
844.025	5193
844.162	5075
844.298	5193
844.435	5105
844.571	5045
844.708	5166
844.844	5292
844.98	5376
845.117	5280
845.253	5121
845.389	5105
845.525	5178
845.661	5113
845.798	5006
845.934	5162
846.07	5083
846.206	5155
846.342	5258
846.478	5174
846.614	5056
846.75	4984
846.886	4934
847.022	5170
847.158	5041
847.294	5060
847.429	5109
847.565	5029
847.701	5330
847.837	4866
847.972	4850
848.108	5018
848.244	4984
848.379	4748
848.515	4717
848.65	4706
848.786	4740
848.921	4797
849.057	4904
849.192	4900
849.328	4866
849.463	4824
849.598	4767
849.734	4763
849.869	4683
850.004	4645
850.14	4634
850.275	4618
850.41	4527
850.545	4596
850.68	4626
850.815	4618
850.95	4668
851.085	4820
851.22	4793
851.355	4706
851.49	4622
851.625	4637
851.76	4660
851.895	4580
852.03	4497
852.165	4649
852.299	4755
852.434	4801
852.569	4759
852.703	4801
852.838	4812
852.973	4934
853.107	4900
853.242	4763
853.376	4645
853.511	4607
853.645	4626
853.78	4828
853.914	4714
854.048	4687
854.183	4634
854.317	4729
854.451	4812
854.585	4706
854.72	4649
854.854	4759
854.988	4592
855.122	4596
855.256	4542
855.39	4622
855.524	4790
855.658	4744
855.792	4691
855.926	4752
856.06	4755
856.194	4843
856.327	4694
856.461	4584
856.595	4615
856.729	4668
856.862	4763
856.996	4683
857.13	4725
857.263	4778
857.397	4771
857.53	4622
857.664	4744
857.797	4793
857.931	4748
858.064	4706
858.197	4725
858.331	4683
858.464	4649
858.597	4519
858.731	4683
858.864	4672
858.997	4630
859.13	4691
859.263	4691
859.396	4698
859.529	4546
859.662	4561
859.795	4516
859.928	4694
860.061	4774
860.194	4702
860.327	4592
860.46	4546
860.592	4767
860.725	4683
860.858	4736
860.99	4611
861.123	4561
861.256	4542
861.388	4558
861.521	5376
861.653	4481
861.786	4497
861.918	4485
862.05	4508
862.183	4565
862.315	4603
862.447	4675
862.58	4577
862.712	4398
862.844	4287
862.976	4474
863.108	4459
863.24	4885
863.372	4360
863.504	4428
863.636	4394
863.768	4508
863.9	4493
864.032	4386
864.164	4402
864.296	4497
864.428	4550
864.559	4565
864.691	4542
864.823	4500
864.954	4470
865.086	4527
865.217	4470
865.349	4371
865.48	4500
865.612	4523
865.743	4656
865.875	4447
866.006	4379
866.137	4489
866.269	4485
866.4	4508
866.531	4489
866.662	4375
866.793	4360
866.924	4424
867.055	4535
867.186	4508
867.317	4447
867.448	4432
867.579	4432
867.71	4390
867.841	4383
867.972	4489
868.103	4481
868.233	4455
868.364	4405
868.495	4508
868.625	4660
868.756	4771
868.886	4573
869.017	4641
869.147	4748
869.278	4824
869.408	4672
869.539	4656
869.669	4698
869.799	4668
869.929	4759
870.06	4752
870.19	4965
870.32	4919
870.45	4984
870.58	5025
870.71	5121
870.84	5045
870.97	4957
871.1	4919
871.23	5143
871.36	5121
871.489	5064
871.619	5052
871.749	5079
871.879	5109
872.008	5136
872.138	5079
872.267	4957
872.397	4900
872.526	4839
872.656	4755
872.785	4782
872.915	4927
873.044	5029
873.173	5003
873.303	4972
873.432	4953
873.561	4949
873.69	4873
873.819	4858
873.948	4911
874.077	4771
874.206	4752
874.335	4805
874.464	4923
874.593	5029
874.722	4976
874.851	5155
874.979	5094
875.108	5056
875.237	4946
875.365	4938
875.494	4873
875.623	5010
875.751	4900
875.88	4934
876.008	4987
876.136	5060
876.265	5170
876.393	5341
876.521	5231
876.65	5269
876.778	5159
876.906	5083
877.034	5056
877.162	5071
877.29	4999
877.418	5086
877.546	5041
877.674	5041
877.802	5033
877.93	5037
878.058	4915
878.185	4805
878.313	4946
878.441	4961
878.568	4767
878.696	4828
878.824	4915
878.951	5025
879.079	5132
879.206	5296
879.333	5124
879.461	4934
879.588	4995
879.715	5071
879.842	5216
879.97	5037
880.097	4805
880.224	4786
880.351	4797
880.478	4820
880.605	4801
880.732	4778
880.859	5090
880.986	4889
881.112	4877
881.239	4736
881.366	4668
881.493	4641
881.619	4554
881.746	4630
881.872	4672
881.999	4630
882.125	4683
882.252	4778
882.378	4793
882.505	4942
882.631	4748
882.757	4649
882.883	4687
883.01	4721
883.136	4649
883.262	4577
883.388	4618
883.514	4839
883.64	4858
883.766	4812
883.892	4634
884.018	4774
884.143	4923
884.269	5022
884.395	4702
884.52	4630
884.646	4645
884.772	4637
884.897	4573
885.023	4672
885.148	4824
885.274	4877
885.399	4790
885.524	4740
885.65	4748
885.775	4805
885.9	4729
886.025	4847
886.15	4816
886.275	4733
886.4	4717
886.525	4729
886.65	4706
886.775	4729
886.9	4915
887.025	5037
887.149	4820
887.274	4645
887.399	4577
887.523	4611
887.648	4618
887.773	4637
887.897	4774
888.021	4854
888.146	4729
888.27	4870
888.395	4972
888.519	4850
888.643	4858
888.767	4881
888.891	4740
889.015	4660
889.139	4687
889.263	4660
889.387	4797
889.511	4930
889.635	4835
889.759	4698
889.883	4672
890.006	4729
890.13	4843
890.254	4656
890.377	4733
890.501	4542
890.624	4565
890.748	4618
890.871	4527
890.995	4459
891.118	4500
891.241	4569
891.364	4603
891.488	4702
891.611	4592
891.734	4580
891.857	4668
891.98	4599
892.103	4679
892.226	4630
892.349	4592
892.471	4466
892.594	4584
892.717	4664
892.839	4599
892.962	4687
893.085	4752
893.207	4656
893.33	4500
893.452	4573
893.575	4733
893.697	4607
893.819	4835
893.941	4900
894.064	4809
894.186	4645
894.308	4603
894.43	4755
894.552	4927
894.674	4793
894.796	4653
894.918	4649
895.04	4668
895.161	4786
895.283	4729
895.405	4660
895.526	4717
895.648	4729
895.769	4752
895.891	4797
896.012	4793
896.134	4774
896.255	4694
896.376	4736
896.498	4694
896.619	4694
896.74	4645
896.861	4675
896.982	4934
897.103	5128
897.224	4839
897.345	4816
897.466	4729
897.587	4778
897.708	4896
897.828	4850
897.949	4675
898.07	4618
898.19	4694
898.311	4900
898.431	4740
898.552	4717
898.672	4858
898.792	4870
898.913	4778
899.033	4710
899.153	4615
899.273	4443
899.393	4550
899.513	4599
899.633	4519
899.753	4603
899.873	4558
899.993	4653
900.113	4588
900.232	4649
900.352	4588
900.472	4542
900.591	4451
900.711	4538
900.83	4485
900.95	4679
901.069	4736
901.189	4588
901.308	4478
901.427	4386
901.546	4390
901.665	4519
901.784	4535
901.904	4405
902.023	4352
902.141	4253
902.26	4230
902.379	4314
902.498	4246
902.617	4257
902.735	4432
902.854	4504
902.973	4375
903.091	4284
903.21	4253
903.328	4284
903.446	4325
903.565	4299
903.683	4421
903.801	4352
903.919	4402
904.038	4493
904.156	4375
904.274	4478
904.392	4421
904.51	4512
904.627	4527
904.745	4641
904.863	4656
904.981	4440
905.098	4356
905.216	4443
905.334	4497
905.451	4516
905.569	4447
905.686	4656
905.803	4618
905.921	4436
906.038	4611
906.155	4538
906.272	4451
906.389	4531
906.506	4398
906.623	4405
906.74	4481
906.857	4360
906.974	4424
907.091	4618
907.208	4725
907.324	4637
907.441	4516
907.557	4371
907.674	4409
907.79	4352
907.907	4421
908.023	4504
908.139	4500
908.256	4462
908.372	4497
908.488	4504
908.604	4409
908.72	4371
908.836	4421
908.952	4424
909.068	4481
909.184	4637
909.3	4531
909.415	4618
909.531	4596
909.647	4413
909.762	4447
909.878	4356
909.993	4516
910.108	4436
910.224	4443
910.339	4599
910.454	4478
910.57	4462
910.685	4314
910.8	4664
910.915	4672
911.03	4550
911.145	4360
911.259	4322
911.374	4428
911.489	4325
911.604	4344
911.718	4196
911.833	4219
911.947	4105
912.062	4063
912.176	4238
912.291	4318
912.405	4265
912.519	4481
912.633	4550
912.748	4405
912.862	4341
912.976	4265
913.09	4128
913.204	4261
913.318	4246
913.431	4390
913.545	4432
913.659	4466
913.772	4462
913.886	4337
914	4276
914.113	4440
914.226	4481
914.34	4398
914.453	4280
914.566	4474
914.68	4375
914.793	4371
914.906	4169
915.019	4131
915.132	4143
915.245	4204
915.358	4227
915.47	4276
915.583	4318
915.696	4352
915.809	4481
915.921	4459
916.034	4306
916.146	4306
916.259	4242
916.371	4413
916.483	4424
916.595	4295
916.708	4371
916.82	4375
916.932	4348
917.044	4386
917.156	4379
917.268	4276
917.38	4352
917.491	4310
917.603	4375
917.715	4497
917.826	4500
917.938	4379
918.049	4303
918.161	4466
918.272	4596
918.384	4584
918.495	4462
918.606	4325
918.717	4230
918.828	4398
918.939	4443
919.05	4284
919.161	4390
919.272	4154
919.383	4280
919.494	4470
919.604	4660
919.715	4474
919.826	4424
919.936	4421
920.047	4554
920.157	4508
920.267	4763
920.378	4592
920.488	4573
920.598	4759
920.708	4915
920.818	4870
920.928	4809
921.038	4980
921.148	4953
921.258	4714
921.368	4577
921.477	4538
921.587	4489
921.697	4367
921.806	4519
921.916	4459
922.025	4325
922.134	4329
922.244	4238
922.353	4348
922.462	4227
922.571	4185
922.68	4074
922.789	4055
922.898	4071
923.007	4040
923.116	4124
923.224	4097
923.333	4101
923.442	4010
923.55	3979
923.659	4063
923.767	4177
923.876	4055
923.984	4147
924.092	4021
924.201	4112
924.309	4147
924.417	4177
924.525	4071
924.633	4131
924.741	4957
924.849	3975
924.956	4166
925.064	4010
925.172	3956
925.279	3964
925.387	4101
925.494	4112
925.602	4204
925.709	4227
925.816	4040
925.924	4162
926.031	4265
926.138	4196
926.245	4234
926.352	4166
926.459	4265
926.566	4386
926.673	4173
926.779	4116
926.886	4139
926.993	4029
927.099	3972
927.206	3983
927.312	3991
927.419	4116
927.525	4051
927.631	4116
927.737	3987
927.843	3918
927.95	3892
928.056	3998
928.162	4032
928.267	4150
928.373	4717
928.479	4154
928.585	3930
928.69	4029
928.796	4109
928.901	4010
929.007	3884
929.112	4025
929.218	4036
929.323	3983
929.428	4010
929.533	4192
929.638	3918
929.743	4021
929.848	4101
929.953	4093
930.058	3975
930.163	3800
930.267	3857
930.372	3987
930.477	3812
930.581	4120
930.685	3983
930.79	3831
930.894	3918
930.998	3930
931.103	4086
931.207	3720
931.311	3747
931.415	3698
931.519	3591
931.623	3622
