Data from test_V78500241_421.txt Node
Date: Fri Mar 25 16:51:55 CST 2022
User: usil
Spectrometer: V785-0024
Trigger mode: 0
Integration Time (sec): 4.000000E-1
Scans to average: 1
Nonlinearity correction enabled: false
Boxcar width: 0
Storing dark spectrum: false
XAxis mode: Wavelengths
Number of Pixels in Spectrum: 1024
>>>>>Begin Spectral Data<<<<<
801.071	8054
801.214	8069
801.356	7936
801.499	7906
801.641	7883
801.783	7940
801.926	7970
802.068	7970
802.211	7978
802.353	8035
802.496	7849
802.638	7928
802.78	7887
802.923	7986
803.065	7875
803.208	7868
803.35	7970
803.492	8024
803.635	8103
803.777	8024
803.919	8123
804.061	8438
804.204	8149
804.346	8092
804.488	7967
804.63	8115
804.773	8001
804.915	8107
805.057	8290
805.199	8240
805.341	8176
805.483	8347
805.626	8195
805.768	7989
805.91	8149
806.052	8199
806.194	8195
806.336	8305
806.478	8164
806.62	8138
806.762	8172
806.904	8301
807.046	8370
807.188	8366
807.33	8187
807.472	8351
807.614	8149
807.756	8195
807.898	8088
808.04	7917
808.182	7970
808.324	7913
808.465	7925
808.607	8062
808.749	8119
808.891	8256
809.033	8324
809.174	8142
809.316	8065
809.458	7963
809.6	8054
809.741	8092
809.883	8046
810.025	8126
810.166	8126
810.308	8043
810.45	8027
810.591	7845
810.733	7753
810.875	7655
811.016	7521
811.158	7609
811.299	7681
811.441	7731
811.582	7769
811.724	7658
811.865	7601
812.007	7708
812.148	7609
812.29	7620
812.431	7772
812.573	7894
812.714	7997
812.855	8237
812.997	8313
813.138	8389
813.279	8244
813.421	8149
813.562	8008
813.703	7909
813.845	7792
813.986	7510
814.127	7343
814.268	7282
814.41	7297
814.551	7194
814.692	7244
814.833	7053
814.974	7141
815.115	7149
815.256	6962
815.397	6894
815.539	6935
815.68	6821
815.821	6776
815.962	6901
816.103	6867
816.244	6776
816.385	6658
816.526	6642
816.666	6502
816.807	6346
816.948	6456
817.089	6528
817.23	6445
817.371	6418
817.512	6346
817.653	6441
817.793	6437
817.934	6426
818.075	6445
818.216	6445
818.356	6433
818.497	6262
818.638	6182
818.778	6159
818.919	6163
819.06	6167
819.2	6376
819.341	6300
819.481	6350
819.622	6589
819.762	6711
819.903	6681
820.043	6608
820.184	6585
820.324	6589
820.465	6700
820.605	6696
820.746	6658
820.886	6540
821.026	6711
821.167	6688
821.307	6829
821.447	6749
821.588	6654
821.728	6627
821.868	6547
822.008	6342
822.149	6407
822.289	6357
822.429	6232
822.569	6072
822.709	6144
822.849	5847
822.99	5954
823.13	5992
823.27	5954
823.41	5798
823.55	5786
823.69	5726
823.83	5790
823.97	5703
824.11	5543
824.25	5516
824.389	5547
824.529	5547
824.669	5524
824.809	5653
824.949	5703
825.089	5661
825.228	5543
825.368	5516
825.508	5379
825.648	5406
825.787	5387
825.927	5391
826.067	5284
826.206	5326
826.346	5349
826.485	5391
826.625	5440
826.765	5551
826.904	5505
827.044	5341
827.183	5151
827.323	5155
827.462	5307
827.601	5185
827.741	5151
827.88	5242
828.02	5079
828.159	5273
828.298	5296
828.437	5341
828.577	5277
828.716	5452
828.855	5341
828.994	5170
829.134	5132
829.273	5170
829.412	5151
829.551	5109
829.69	5170
829.829	5250
829.968	5376
830.107	5292
830.246	5269
830.385	5201
830.524	5178
830.663	5079
830.802	4991
830.941	4904
831.08	4850
831.219	5006
831.357	4972
831.496	5147
831.635	4946
831.774	4858
831.913	4816
832.051	4733
832.19	4797
832.329	4828
832.467	4721
832.606	4721
832.744	4710
832.883	4710
833.022	4752
833.16	4824
833.299	4831
833.437	4839
833.576	4839
833.714	4835
833.852	4881
833.991	4904
834.129	4923
834.267	4991
834.406	4938
834.544	4965
834.682	5022
834.821	5014
834.959	5212
835.097	5029
835.235	5220
835.373	5064
835.511	5105
835.65	5071
835.788	4984
835.926	4930
836.064	4870
836.202	4862
836.34	5178
836.478	5277
836.615	5143
836.753	5250
836.891	5280
837.029	5269
837.167	5185
837.305	5105
837.443	5113
837.58	5067
837.718	5269
837.856	5185
837.993	5113
838.131	5269
838.269	5235
838.406	5174
838.544	5227
838.681	5090
838.819	5025
838.956	4892
839.094	4923
839.231	4999
839.369	5045
839.506	5360
839.643	5261
839.781	5045
839.918	5022
840.055	5140
840.193	5075
840.33	5151
840.467	5162
840.604	5181
840.742	5448
840.879	5140
841.016	5090
841.153	5170
841.29	5417
841.427	5341
841.564	5322
841.701	5391
841.838	5261
841.975	5261
842.112	5334
842.249	5178
842.385	5109
842.522	5372
842.659	5185
842.796	5216
842.933	5204
843.069	5170
843.206	5155
843.343	5322
843.479	5235
843.616	5299
843.752	5056
843.889	4984
844.025	5170
844.162	5022
844.298	5216
844.435	5075
844.571	5056
844.708	5250
844.844	5269
844.98	5326
845.117	5330
845.253	5155
845.389	5090
845.525	5181
845.661	5124
845.798	5033
845.934	5147
846.07	5010
846.206	5193
846.342	5299
846.478	5220
846.614	5041
846.75	4942
846.886	4976
847.022	5170
847.158	5045
847.294	5056
847.429	5140
847.565	5033
847.701	5284
847.837	4885
847.972	4793
848.108	5014
848.244	4953
848.379	4797
848.515	4740
848.65	4755
848.786	4752
848.921	4820
849.057	4877
849.192	4889
849.328	4839
849.463	4843
849.598	4786
849.734	4755
849.869	4694
850.004	4607
850.14	4664
850.275	4618
850.41	4512
850.545	4592
850.68	4630
850.815	4649
850.95	4615
851.085	4858
851.22	4771
851.355	4717
851.49	4615
851.625	4645
851.76	4615
851.895	4546
852.03	4523
852.165	4656
852.299	4740
852.434	4793
852.569	4736
852.703	4809
852.838	4923
852.973	4923
853.107	4923
853.242	4759
853.376	4687
853.511	4542
853.645	4565
853.78	4740
853.914	4717
854.048	4626
854.183	4656
854.317	4748
854.451	4843
854.585	4637
854.72	4622
854.854	4759
854.988	4561
855.122	4630
855.256	4546
855.39	4664
855.524	4793
855.658	4763
855.792	4733
855.926	4736
856.06	4717
856.194	4782
856.327	4702
856.461	4660
856.595	4653
856.729	4599
856.862	4763
856.996	4702
857.13	4729
857.263	4755
857.397	4790
857.53	4664
857.664	4729
857.797	4790
857.931	4759
858.064	4687
858.197	4725
858.331	4649
858.464	4637
858.597	4519
858.731	4615
858.864	4637
858.997	4580
859.13	4634
859.263	4721
859.396	4702
859.529	4558
859.662	4599
859.795	4584
859.928	4626
860.061	4729
860.194	4740
860.327	4592
860.46	4561
860.592	4694
860.725	4710
860.858	4774
860.99	4580
861.123	4497
861.256	4493
861.388	4596
861.521	5433
861.653	4531
861.786	4481
861.918	4478
862.05	4565
862.183	4558
862.315	4649
862.447	4634
862.58	4497
862.712	4405
862.844	4379
862.976	4470
863.108	4504
863.24	4752
863.372	4318
863.504	4500
863.636	4398
863.768	4508
863.9	4409
864.032	4394
864.164	4417
864.296	4485
864.428	4580
864.559	4573
864.691	4569
864.823	4489
864.954	4497
865.086	4523
865.217	4447
865.349	4443
865.48	4478
865.612	4500
865.743	4615
865.875	4493
866.006	4466
866.137	4485
866.269	4428
866.4	4462
866.531	4398
866.662	4383
866.793	4383
866.924	4447
867.055	4459
867.186	4470
867.317	4402
867.448	4363
867.579	4379
867.71	4394
867.841	4417
867.972	4462
868.103	4459
868.233	4417
868.364	4447
868.495	4500
868.625	4729
868.756	4786
868.886	4554
869.017	4626
869.147	4763
869.278	4733
869.408	4645
869.539	4664
869.669	4729
869.799	4672
869.929	4793
870.06	4759
870.19	4923
870.32	4908
870.45	4927
870.58	4987
870.71	5128
870.84	5105
870.97	4896
871.1	4908
871.23	5117
871.36	5132
871.489	5052
871.619	5056
871.749	5060
871.879	5140
872.008	5140
872.138	5052
872.267	4942
872.397	4881
872.526	4801
872.656	4733
872.785	4854
872.915	4930
873.044	5006
873.173	4942
873.303	5010
873.432	4927
873.561	4942
873.69	4904
873.819	4889
873.948	4889
874.077	4847
874.206	4717
874.335	4816
874.464	5006
874.593	5086
874.722	4946
874.851	5083
874.979	5079
875.108	5064
875.237	4892
875.365	4908
875.494	4927
875.623	4984
875.751	4820
875.88	4896
876.008	4949
876.136	5014
876.265	5193
876.393	5372
876.521	5311
876.65	5223
876.778	5212
876.906	5109
877.034	5052
877.162	5067
877.29	4972
877.418	5060
877.546	5071
877.674	4999
877.802	5083
877.93	5056
878.058	4923
878.185	4911
878.313	4976
878.441	4961
878.568	4831
878.696	4858
878.824	4961
878.951	4984
879.079	5147
879.206	5292
879.333	5124
879.461	4942
879.588	5018
879.715	5098
879.842	5258
879.97	4984
880.097	4755
880.224	4744
880.351	4801
880.478	4873
880.605	4805
880.732	4797
880.859	5105
880.986	4862
881.112	4946
881.239	4774
881.366	4618
881.493	4656
881.619	4542
881.746	4660
881.872	4637
881.999	4679
882.125	4691
882.252	4805
882.378	4850
882.505	4942
882.631	4801
882.757	4721
882.883	4694
883.01	4733
883.136	4649
883.262	4569
883.388	4668
883.514	4797
883.64	4892
883.766	4778
883.892	4637
884.018	4721
884.143	4847
884.269	4999
884.395	4710
884.52	4622
884.646	4656
884.772	4611
884.897	4550
885.023	4675
885.148	4740
885.274	4900
885.399	4744
885.524	4744
885.65	4653
885.775	4759
885.9	4710
886.025	4873
886.15	4755
886.275	4752
886.4	4706
886.525	4763
886.65	4675
886.775	4721
886.9	4881
887.025	5018
887.149	4820
887.274	4683
887.399	4596
887.523	4596
887.648	4596
887.773	4630
887.897	4786
888.021	4790
888.146	4706
888.27	4854
888.395	4892
888.519	4778
888.643	4786
888.767	4847
888.891	4683
889.015	4637
889.139	4622
889.263	4569
889.387	4812
889.511	4889
889.635	4774
889.759	4679
889.883	4645
890.006	4702
890.13	4885
890.254	4630
890.377	4691
890.501	4561
890.624	4504
890.748	4649
890.871	4512
890.995	4470
891.118	4421
891.241	4580
891.364	4542
891.488	4618
891.611	4523
891.734	4519
891.857	4584
891.98	4565
892.103	4641
892.226	4599
892.349	4550
892.471	4390
892.594	4569
892.717	4580
892.839	4603
892.962	4558
893.085	4660
893.207	4637
893.33	4424
893.452	4523
893.575	4691
893.697	4584
893.819	4782
893.941	4812
894.064	4786
894.186	4580
894.308	4561
894.43	4740
894.552	4816
894.674	4744
894.796	4565
894.918	4558
895.04	4558
895.161	4675
895.283	4641
895.405	4588
895.526	4660
895.648	4721
895.769	4714
895.891	4744
896.012	4725
896.134	4740
896.255	4664
896.376	4694
896.498	4653
896.619	4702
896.74	4592
896.861	4702
896.982	4980
897.103	5090
897.224	4847
897.345	4759
897.466	4702
897.587	4763
897.708	4862
897.828	4733
897.949	4615
898.07	4542
898.19	4615
898.311	4828
898.431	4649
898.552	4702
898.672	4854
898.792	4835
898.913	4717
899.033	4637
899.153	4508
899.273	4386
899.393	4474
899.513	4535
899.633	4504
899.753	4519
899.873	4523
899.993	4596
900.113	4527
900.232	4592
900.352	4546
900.472	4455
900.591	4428
900.711	4531
900.83	4455
900.95	4573
901.069	4672
901.189	4535
901.308	4375
901.427	4322
901.546	4383
901.665	4455
901.784	4485
901.904	4379
902.023	4299
902.141	4200
902.26	4204
902.379	4318
902.498	4238
902.617	4207
902.735	4375
902.854	4375
902.973	4360
903.091	4234
903.21	4196
903.328	4322
903.446	4268
903.565	4249
903.683	4390
903.801	4299
903.919	4379
904.038	4383
904.156	4344
904.274	4443
904.392	4428
904.51	4375
904.627	4500
904.745	4565
904.863	4630
904.981	4390
905.098	4333
905.216	4386
905.334	4421
905.451	4462
905.569	4440
905.686	4573
905.803	4592
905.921	4386
906.038	4523
906.155	4421
906.272	4402
906.389	4402
906.506	4390
906.623	4424
906.74	4394
906.857	4329
906.974	4367
907.091	4546
907.208	4675
907.324	4592
907.441	4493
907.557	4363
907.674	4344
907.79	4314
907.907	4356
908.023	4428
908.139	4466
908.256	4424
908.372	4455
908.488	4481
908.604	4371
908.72	4291
908.836	4371
908.952	4394
909.068	4405
909.184	4558
909.3	4500
909.415	4596
909.531	4569
909.647	4363
909.762	4333
909.878	4363
909.993	4466
910.108	4394
910.224	4409
910.339	4489
910.454	4390
910.57	4341
910.685	4341
910.8	4637
910.915	4565
911.03	4470
911.145	4268
911.259	4379
911.374	4421
911.489	4295
911.604	4310
911.718	4158
911.833	4204
911.947	4048
912.062	4036
912.176	4230
912.291	4280
912.405	4207
912.519	4485
912.633	4527
912.748	4398
912.862	4272
912.976	4196
913.09	4124
913.204	4162
913.318	4238
913.431	4325
913.545	4363
913.659	4413
913.772	4310
913.886	4204
914	4227
914.113	4333
914.226	4424
914.34	4424
914.453	4234
914.566	4432
914.68	4329
914.793	4333
914.906	4158
915.019	4112
915.132	4116
915.245	4185
915.358	4154
915.47	4238
915.583	4265
915.696	4249
915.809	4394
915.921	4402
916.034	4268
916.146	4200
916.259	4158
916.371	4360
916.483	4314
916.595	4303
916.708	4341
916.82	4329
916.932	4306
917.044	4299
917.156	4249
917.268	4196
917.38	4276
917.491	4246
917.603	4314
917.715	4424
917.826	4409
917.938	4310
918.049	4196
918.161	4424
918.272	4561
918.384	4493
918.495	4474
918.606	4287
918.717	4230
918.828	4329
918.939	4325
919.05	4230
919.161	4322
919.272	4139
919.383	4261
919.494	4455
919.604	4611
919.715	4402
919.826	4367
919.936	4398
920.047	4565
920.157	4497
920.267	4740
920.378	4538
920.488	4516
920.598	4725
920.708	4911
920.818	4786
920.928	4797
921.038	4968
921.148	4938
921.258	4649
921.368	4584
921.477	4512
921.587	4451
921.697	4390
921.806	4546
921.916	4459
922.025	4265
922.134	4253
922.244	4234
922.353	4390
922.462	4192
922.571	4143
922.68	3994
922.789	4059
922.898	4071
923.007	4021
923.116	4143
923.224	4109
923.333	4120
923.442	4063
923.55	4044
923.659	4059
923.767	4173
923.876	4063
923.984	4169
924.092	4021
924.201	4097
924.309	4192
924.417	4162
924.525	4101
924.633	4131
924.741	5121
924.849	3975
924.956	4200
925.064	4025
925.172	3975
925.279	4010
925.387	4131
925.494	4120
925.602	4249
925.709	4166
925.816	4067
925.924	4154
926.031	4322
926.138	4181
926.245	4272
926.352	4135
926.459	4344
926.566	4306
926.673	4185
926.779	4135
926.886	4135
926.993	4017
927.099	4021
927.206	3979
927.312	4002
927.419	4181
927.525	4101
927.631	4162
927.737	3991
927.843	4029
927.95	3880
928.056	4010
928.162	4063
928.267	4101
928.373	4748
928.479	4188
928.585	3899
928.69	4017
928.796	4147
928.901	3983
929.007	3896
929.112	4109
929.218	4032
929.323	4021
929.428	3994
929.533	4124
929.638	4010
929.743	3968
929.848	4105
929.953	4025
930.058	3956
930.163	3823
930.267	3896
930.372	4013
930.477	3842
930.581	4093
930.685	3987
930.79	3857
930.894	3930
930.998	3876
931.103	4013
931.207	3804
931.311	3770
931.415	3740
931.519	3538
931.623	3610
